Timestamp,EMG_Value
1.4328081607818604,498.0
1.604691743850708,353.0
1.6672041416168213,558.0
1.7140767574310303,402.0
1.7609505653381348,645.0
1.807835578918457,532.0
1.8703107833862305,650.0
1.9171996116638184,649.0
1.9640922546386719,650.0
2.010936737060547,647.0
2.0644216537475586,366.0
2.7605319023132324,91.0
2.893608570098877,195.0
2.960235357284546,55.0
3.0344624519348145,275.0
3.0889415740966797,118.0
3.1514530181884766,306.0
3.1983277797698975,165.0
3.260789632797241,308.0
3.3076560497283936,243.0
3.4014406204223633,349.0
3.463939666748047,305.0
3.5420849323272705,363.0
3.6045751571655273,340.0
3.651407480239868,356.0
3.7139391899108887,390.0
3.760814666748047,353.0
3.792078971862793,444.0
3.838939666748047,380.0
3.885829210281372,493.0
3.9326889514923096,410.0
3.9795639514923096,568.0
4.026438474655151,452.0
4.073285818099976,634.0
4.121011734008789,502.0
4.167890310287476,648.0
4.214765787124634,591.0
4.261640787124634,649.0
4.308530330657959,647.0
4.355386257171631,649.0
4.402264833450317,650.0
4.44915509223938,650.0
4.5116636753082275,649.0
4.5585150718688965,650.0
4.605398893356323,650.0
4.652239799499512,650.0
4.714781999588013,649.0
4.761641263961792,649.0
4.8085174560546875,650.0
4.855386257171631,649.0
4.902268648147583,650.0
4.95561408996582,649.0
5.002530574798584,650.0
5.06501317024231,651.0
5.1119043827056885,649.0
5.174404621124268,650.0
5.221277952194214,650.0
5.2837629318237305,649.0
5.330640554428101,649.0
5.37752890586853,649.0
5.42438817024231,649.0
5.486904859542847,649.0
5.533764600753784,650.0
5.580652952194214,650.0
5.62751317024231,649.0
5.67440128326416,650.0
5.705651044845581,649.0
5.752527952194214,646.0
5.799402236938477,649.0
5.846263408660889,605.0
5.893137216567993,648.0
5.9400365352630615,582.0
5.9869065284729,647.0
6.018137693405151,565.0
6.065014362335205,647.0
6.111905336380005,560.0
6.158763408660889,648.0
6.205644607543945,547.0
6.252528429031372,648.0
6.299359321594238,541.0
6.346278429031372,647.0
6.39314079284668,503.0
6.44002890586853,647.0
6.486914396286011,487.0
6.53377890586853,646.0
6.5806379318237305,466.0
6.627500295639038,646.0
6.6744043827056885,450.0
6.72127628326416,639.0
6.768153190612793,432.0
6.830639362335205,619.0
6.877528429031372,437.0
6.924361228942871,591.0
6.971278429031372,439.0
7.0181543827056885,553.0
7.064985513687134,437.0
7.112446308135986,517.0
7.1593616008758545,413.0
7.206261157989502,465.0
7.253112077713013,648.0
7.299986839294434,648.0
7.346878290176392,650.0
7.3937506675720215,649.0
7.440627336502075,650.0
7.487452268600464,649.0
7.534377574920654,651.0
7.581251621246338,650.0
7.628111362457275,646.0
7.674986839294434,448.0
7.7218334674835205,554.0
7.768736362457275,420.0
7.831246376037598,600.0
7.878083944320679,378.0
7.924987554550171,620.0
7.9718334674835205,432.0
8.018757820129395,648.0
8.065612316131592,462.0
8.112680435180664,646.0
8.159598112106323,452.0
8.206473588943481,646.0
8.253348112106323,478.0
8.300210237503052,648.0
8.362685680389404,501.0
8.40958571434021,647.0
8.472098588943481,557.0
8.534589290618896,649.0
8.581461429595947,646.0
8.643984317779541,650.0
8.690807104110718,648.0
8.737724542617798,650.0
8.784598112106323,649.0
8.83145785331726,651.0
8.909554719924927,651.0
8.972052335739136,651.0
9.034582614898682,651.0
9.081457138061523,651.0
9.159782648086548,649.0
9.222270250320435,646.0
9.28477168083191,369.0
9.347292423248291,177.0
9.409759998321533,89.0
13.331978559494019,372.0
13.378900051116943,651.0
13.425775289535522,651.0
13.472663640975952,650.0
13.519510269165039,651.0
13.56640100479126,649.0
13.628853797912598,650.0
13.70697832107544,650.0
13.769498586654663,650.0
13.816399097442627,650.0
13.863274335861206,651.0
13.91013479232788,649.0
13.957059383392334,646.0
14.00388789176941,644.0
14.050759315490723,486.0
14.11327576637268,637.0
14.160143375396729,428.0
14.206986665725708,565.0
14.269497871398926,356.0
14.31638765335083,437.0
14.363277435302734,367.0
14.425774574279785,466.0
14.47262692451477,376.0
14.519495248794556,492.0
14.566401720046997,532.0
14.613261222839355,565.0
14.660134553909302,36.0
15.769862651824951,507.0
15.816738367080688,650.0
15.863612413406372,650.0
15.926127910614014,651.0
15.973002910614014,649.0
16.03550672531128,651.0
16.082363605499268,651.0
16.12945318222046,650.0
16.176326751708984,649.0
16.223202228546143,642.0
16.2700777053833,342.0
16.316936016082764,324.0
16.379438638687134,332.0
16.426311016082764,333.0
16.47320008277893,329.0
16.53572106361389,331.0
16.5825777053833,328.0
16.629435777664185,331.0
16.676327228546143,324.0
16.738811254501343,330.0
16.785701990127563,327.0
16.8325777053833,331.0
16.87943959236145,347.0
16.926326513290405,651.0
16.9888117313385,651.0
17.03570055961609,650.0
17.082560300827026,650.0
17.12974190711975,651.0
17.17660093307495,649.0
17.239101886749268,649.0
17.285990476608276,649.0
17.33286690711975,651.0
17.395367860794067,651.0
17.457822561264038,650.0
17.52031970024109,649.0
17.567225217819214,649.0
17.645347356796265,649.0
17.69224190711975,650.0
17.739113330841064,218.0
17.895353317260742,192.0
17.942225456237793,61.0
17.98911714553833,624.0
18.03599524497986,533.0
18.082850456237793,649.0
18.14562225341797,650.0
18.192480325698853,651.0
18.239370346069336,650.0
18.286246299743652,649.0
18.333121299743652,651.0
18.395620584487915,651.0
18.442481994628906,650.0
18.48935604095459,650.0
18.536244869232178,650.0
18.59873080253601,648.0
18.645576000213623,300.0
18.70810556411743,115.0
20.614744663238525,3.0
20.661602020263672,313.0
20.70847725868225,330.0
20.770994186401367,323.0
20.817850589752197,327.0
20.880351305007935,325.0
20.92722749710083,329.0
20.989731550216675,327.0
21.052228450775146,329.0
21.099102020263672,326.0
21.14615488052368,330.0
21.208669424057007,326.0
21.25553035736084,331.0
21.30241894721985,264.0
21.34928274154663,168.0
21.411781549453735,184.0
21.474279403686523,129.0
21.52117109298706,124.0
21.583625555038452,102.0
21.630545139312744,88.0
21.677419662475586,94.0
21.739920139312744,24.0
21.786794424057007,54.0
21.89617085456848,35.0
24.115432024002075,649.0
24.16236686706543,651.0
24.209226369857788,651.0
24.256101369857788,650.0
24.302974462509155,651.0
24.34982442855835,651.0
24.396742582321167,649.0
24.44361710548401,650.0
24.49047613143921,649.0
24.53735327720642,649.0
24.584221839904785,522.0
24.63110089302063,574.0
24.677991151809692,384.0
24.724852085113525,471.0
24.77253270149231,218.0
24.81942868232727,286.0
24.881879329681396,63.0
24.928807735443115,110.0
25.928802967071533,651.0
25.97565269470215,651.0
26.022520065307617,651.0
26.069411754608154,650.0
26.131905555725098,649.0
26.178787231445312,651.0
26.225677728652954,649.0
26.27255082130432,392.0
26.319425582885742,311.0
26.36630916595459,329.0
26.413162231445312,332.0
26.460052251815796,329.0
26.506911277770996,331.0
26.553801774978638,328.0
26.600679636001587,329.0
26.64755344390869,328.0
26.694416999816895,330.0
26.756927728652954,330.0
26.803786277770996,331.0
26.850677251815796,331.0
26.89753293991089,420.0
26.944411754608154,242.0
26.99128746986389,376.0
27.03816246986389,182.0
27.08503770828247,318.0
27.13257670402527,145.0
27.17944860458374,285.0
27.226332902908325,100.0
27.273209810256958,236.0
27.32008671760559,59.0
27.366962432861328,216.0
27.413829565048218,2.0
27.460696697235107,94.0
28.226674795150757,148.0
28.27356505393982,288.0
28.3360652923584,217.0
28.38292622566223,168.0
28.429799556732178,193.0
28.476691007614136,172.0
28.523573637008667,64.0
28.5704448223114,88.0
28.617299795150757,72.0
28.664180278778076,153.0
28.711050033569336,126.0
28.75793957710266,231.0
28.80481266975403,235.0
28.85168957710266,440.0
28.89857316017151,638.0
28.961064338684082,651.0
29.007941246032715,650.0
29.054800510406494,649.0
29.101677656173706,651.0
29.148858547210693,651.0
29.195727586746216,651.0
29.242615222930908,650.0
29.289490938186646,650.0
29.33634924888611,650.0
29.398855447769165,651.0
29.445725679397583,650.0
29.49259877204895,649.0
29.53948950767517,651.0
29.586365699768066,649.0
29.633240699768066,651.0
29.68010902404785,650.0
29.726995944976807,651.0
29.789490222930908,651.0
29.836365222930908,651.0
29.883224964141846,650.0
29.9301118850708,649.0
29.992600440979004,650.0
30.039488077163696,650.0
30.08634901046753,651.0
30.133429527282715,650.0
30.19592595100403,651.0
30.24280047416687,651.0
30.289692163467407,651.0
30.35219120979309,650.0
30.399055004119873,651.0
30.46158218383789,649.0
30.508426904678345,651.0
30.570927381515503,649.0
30.617801427841187,651.0
30.664698839187622,651.0
30.71156620979309,651.0
30.75842523574829,650.0
30.820926904678345,650.0
30.867807626724243,629.0
30.914682626724243,419.0
30.96155047416687,184.0
31.02406644821167,216.0
31.07094430923462,10.0
31.133903741836548,75.0
34.009135007858276,649.0
34.071677446365356,651.0
34.1185405254364,649.0
34.165425062179565,650.0
34.227927684783936,650.0
34.274789810180664,650.0
34.321677684783936,651.0
34.36851477622986,651.0
34.431036710739136,650.0
34.477911949157715,649.0
34.540427446365356,650.0
34.587313413619995,649.0
34.634162187576294,650.0
34.696674823760986,651.0
34.74355387687683,650.0
34.79041266441345,650.0
34.85291790962219,650.0
34.899786710739136,631.0
34.96228766441345,648.0
35.009177684783936,650.0
35.056050539016724,651.0
35.102927446365356,649.0
35.16576910018921,651.0
35.212626934051514,650.0
35.259546756744385,650.0
35.32199668884277,650.0
35.368865728378296,651.0
35.41578459739685,650.0
35.4782817363739,649.0
35.52516007423401,651.0
35.57201814651489,649.0
35.63453555107117,650.0
35.69701862335205,650.0
35.74391007423401,650.0
35.79076862335205,650.0
35.853285789489746,650.0
35.90016722679138,651.0
35.947035789489746,650.0
36.00951862335205,605.0
36.056394815444946,327.0
36.10328507423401,326.0
36.16596484184265,332.0
36.21284556388855,331.0
36.2753586769104,330.0
36.32223582267761,331.0
36.36910390853882,330.0
36.41596555709839,331.0
36.478482484817505,330.0
36.52535605430603,332.0
36.58781838417053,339.0
36.65031814575195,335.0
36.7128381729126,437.0
36.75973176956177,649.0
36.82221484184265,650.0
36.86905884742737,650.0
36.91596579551697,647.0
36.978452920913696,355.0
37.02535438537598,324.0
37.08784079551697,331.0
37.134730100631714,334.0
37.18159079551697,333.0
37.259702920913696,314.0
37.32218813896179,320.0
37.384687662124634,329.0
37.44718790054321,327.0
37.52531337738037,328.0
37.603435039520264,327.0
37.66596746444702,328.0
37.712841510772705,325.0
37.77535104751587,328.0
37.83783984184265,244.0
37.88471722602844,215.0
38.08784103393555,192.0
38.150747299194336,320.0
38.2288556098938,651.0
38.275752782821655,649.0
38.338255405426025,649.0
38.38514232635498,649.0
38.44764566421509,650.0
38.494503021240234,650.0
38.541390895843506,650.0
38.60388708114624,651.0
38.65076732635498,651.0
38.713266134262085,649.0
38.760128021240234,650.0
38.80700182914734,650.0
38.86950421333313,650.0
38.9163932800293,650.0
38.96325349807739,499.0
39.025774002075195,316.0
39.07262897491455,332.0
39.13533401489258,333.0
39.182191371917725,329.0
39.24472737312317,334.0
39.29157543182373,330.0
39.33844470977783,332.0
39.40095853805542,330.0
39.4478325843811,330.0
39.51029419898987,329.0
39.557207345962524,331.0
39.619690895080566,212.0
39.68219017982483,50.0
39.74470400810242,143.0
39.791579246520996,411.0
39.85406708717346,402.0
39.900941133499146,648.0
39.963441133499146,650.0
40.01033115386963,649.0
40.057204723358154,651.0
40.11986255645752,650.0
40.16677117347717,650.0
40.229254961013794,651.0
40.27615547180176,651.0
40.33865284919739,651.0
40.38554406166077,649.0
40.43238043785095,650.0
40.49488043785095,649.0
40.55786991119385,651.0
40.60429286956787,649.0
40.666791915893555,649.0
40.71365213394165,651.0
40.77614879608154,650.0
40.83865213394165,650.0
40.885552167892456,651.0
40.932419538497925,650.0
40.99490308761597,651.0
41.041757106781006,650.0
41.10429286956787,650.0
41.15138816833496,651.0
41.21388602256775,649.0
41.26076531410217,649.0
41.323248863220215,650.0
41.37013363838196,650.0
41.417011976242065,650.0
41.49513506889343,651.0
41.54201316833496,650.0
41.5888888835907,651.0
41.65139102935791,557.0
42.495373487472534,303.0
42.54226326942444,340.0
42.58912491798401,324.0
42.63600730895996,327.0
42.682873010635376,330.0
42.729764223098755,332.0
42.77660083770752,331.0
42.82351350784302,330.0
42.870373487472534,331.0
42.91724872589111,330.0
42.96413826942444,329.0
43.01100254058838,330.0
43.05786991119385,388.0
43.10474872589111,645.0
43.15185308456421,507.0
43.214367628097534,648.0
43.26124358177185,645.0
43.30810189247131,647.0
43.35497736930847,605.0
43.40185260772705,589.0
43.448726415634155,344.0
43.49561834335327,402.0
43.54247713088989,220.0
43.58932971954346,188.0
43.65185499191284,19.0
43.69872713088989,70.0
44.8083918094635,293.0
44.855255365371704,334.0
44.917757987976074,324.0
44.96464204788208,325.0
45.011504888534546,328.0
45.05837893486023,329.0
45.10525465011597,328.0
45.15214419364929,329.0
45.19901752471924,327.0
45.24589419364929,329.0
45.29272675514221,329.0
45.339630126953125,331.0
45.402101278305054,470.0
45.46460223197937,649.0
45.53862762451172,651.0
45.577009201049805,650.0
45.639514684677124,650.0
45.68640184402466,651.0
45.7332603931427,650.0
45.780134201049805,650.0
45.82700824737549,650.0
45.87390112876892,651.0
45.92077422142029,651.0
45.96765065193176,638.0
46.014533042907715,301.0
46.076982259750366,163.0
46.15511178970337,62.0
49.265103578567505,129.0
49.311978816986084,268.0
49.37443423271179,395.0
49.421353816986084,389.0
49.46823191642761,495.0
49.5151047706604,483.0
49.56198000907898,605.0
49.60883831977844,541.0
49.655712842941284,646.0
49.702603816986084,581.0
49.76509618759155,648.0
49.811978578567505,642.0
49.85882759094238,644.0
49.921337366104126,453.0
49.9838387966156,560.0
50.03072714805603,419.0
50.077603816986084,530.0
50.12470841407776,449.0
50.17163920402527,600.0
50.21849966049194,515.0
50.265373945236206,623.0
50.327874183654785,552.0
50.37476396560669,632.0
50.4216251373291,432.0
50.49976706504822,471.0
50.56225037574768,405.0
50.62476468086243,503.0
50.67163920402527,431.0
50.71849989891052,502.0
50.765379190444946,445.0
50.81226444244385,481.0
50.85912346839905,427.0
50.92163276672363,241.0
52.56275272369385,85.0
52.60960793495178,453.0
52.672117948532104,419.0
52.734593868255615,613.0
52.79709768295288,592.0
52.859602212905884,648.0
52.92215156555176,648.0
52.96898007392883,648.0
53.015849590301514,649.0
53.062766313552856,650.0
53.12526607513428,649.0
53.172093629837036,650.0
53.218968629837036,649.0
53.2658793926239,650.0
53.312766313552856,650.0
53.375251054763794,650.0
53.422123670578,651.0
53.46901750564575,651.0
53.515876054763794,649.0
53.57834267616272,649.0
53.62525725364685,650.0
53.68777275085449,650.0
53.75026798248291,649.0
53.797147274017334,651.0
53.84402370452881,649.0
53.890888690948486,651.0
53.953378677368164,649.0
54.0002498626709,649.0
54.047141551971436,649.0
54.09400010108948,649.0
54.14111304283142,651.0
54.20360016822815,651.0
54.25047326087952,650.0
54.297353982925415,650.0
54.34422254562378,650.0
54.39111256599426,651.0
54.45360040664673,651.0
54.50048828125,649.0
54.54734921455383,650.0
54.594194412231445,650.0
54.64106583595276,650.0
54.687973499298096,650.0
54.75047326087952,649.0
54.79736304283142,650.0
54.84424662590027,651.0
54.89111351966858,652.0
54.95359921455383,649.0
55.00047206878662,649.0
55.04734706878662,650.0
55.10984802246094,650.0
55.15672254562378,651.0
55.20361328125,649.0
55.250473499298096,650.0
55.29736042022705,651.0
55.34423804283142,650.0
55.40672183036804,650.0
55.45359683036804,646.0
55.51606845855713,555.0
55.56294083595276,459.0
55.6098473072052,486.0
55.6567223072052,414.0
55.70359778404236,427.0
55.766098499298096,390.0
55.81297302246094,405.0
55.85986828804016,361.0
55.90672326087952,404.0
55.95359778404236,323.0
56.01609754562378,382.0
56.06297278404236,268.0
56.10986089706421,265.0
56.157076835632324,180.0
56.21957969665527,234.0
56.266435861587524,117.0
56.31332468986511,192.0
56.360201358795166,101.0
56.40704679489136,280.0
56.469560384750366,327.0
56.51643776893616,440.0
56.56331729888916,375.0
56.61020278930664,520.0
56.657060384750366,434.0
56.71956157684326,531.0
56.76645112037659,452.0
56.81331133842468,534.0
56.86019992828369,438.0
56.907060861587524,515.0
56.95395064353943,499.0
57.01640701293945,644.0
57.06333661079407,646.0
57.11018681526184,647.0
57.15729641914368,649.0
57.20416831970215,649.0
57.26667404174805,650.0
57.31354784965515,649.0
57.37606239318848,649.0
57.43857526779175,650.0
57.485435247421265,650.0
57.532304525375366,650.0
57.579185009002686,650.0
57.6416711807251,651.0
57.688562870025635,650.0
57.73543882369995,649.0
57.782310247421265,649.0
57.84481143951416,649.0
57.89168047904968,650.0
57.9385347366333,650.0
57.985421657562256,650.0
58.047937631607056,650.0
58.11043739318848,649.0
58.15775465965271,650.0
58.204586029052734,651.0
58.267138719558716,649.0
58.313992500305176,650.0
58.37650203704834,649.0
58.438990116119385,651.0
58.48587512969971,651.0
58.532742738723755,649.0
58.59525752067566,650.0
58.64212393760681,649.0
58.68901062011719,650.0
58.73588156700134,650.0
58.79836702346802,649.0
58.84524059295654,650.0
58.89211559295654,650.0
58.95458650588989,649.0
59.001516342163086,650.0
59.048364877700806,650.0
59.11086654663086,651.0
59.17353391647339,649.0
59.22045278549194,650.0
59.26731085777283,650.0
59.3298122882843,649.0
59.37668752670288,649.0
59.42356204986572,651.0
59.48607850074768,650.0
59.53294634819031,649.0
59.59545350074768,651.0
59.642327547073364,649.0
59.689202547073364,649.0
59.73607659339905,649.0
59.79856872558594,588.0
59.845454931259155,525.0
59.89232635498047,437.0
59.939202547073364,448.0
60.001686573028564,351.0
60.04857063293457,394.0
60.0954532623291,271.0
60.1425404548645,368.0
60.20502734184265,245.0
60.251903772354126,343.0
60.29879069328308,233.0
60.345651626586914,329.0
60.408167123794556,198.0
60.45503807067871,282.0
60.51754641532898,184.0
60.564374685287476,267.0
60.61129283905029,113.0
60.67379140853882,211.0
60.720623254776,129.0
60.767552852630615,370.0
60.83002948760986,388.0
60.89254283905029,501.0
60.93941593170166,463.0
61.0019211769104,545.0
61.048792362213135,499.0
61.09565353393555,557.0
61.14277100563049,477.0
61.20525813102722,513.0
61.252148151397705,484.0
61.29900550842285,470.0
61.345895290374756,442.0
61.408395767211914,446.0
61.45525550842285,424.0
61.52107763290405,403.0
61.576027154922485,385.0
61.63999676704407,349.0
61.70403027534485,366.0
61.75804352760315,292.0
61.81799936294556,308.0
61.88002014160156,211.0
61.93804574012756,233.0
62.007999658584595,168.0
62.07517910003662,216.0
62.13518142700195,103.0
62.193211793899536,169.0
62.251227617263794,7.0
62.310224533081055,55.0
63.356327295303345,1.0
63.4113392829895,87.0
63.45745372772217,29.0
63.536962270736694,99.0
63.5972580909729,44.0
63.655914545059204,103.0
63.71322751045227,47.0
63.76750826835632,119.0
63.81724405288696,66.0
63.87733221054077,97.0
63.937336921691895,48.0
63.999815702438354,93.0
64.04671907424927,53.0
64.09360957145691,59.0
64.156094789505,54.0
64.20294046401978,46.0
64.26547074317932,71.0
64.3123471736908,57.0
64.37484550476074,66.0
64.42172527313232,46.0
64.46861004829407,110.0
64.53111386299133,49.0
64.5779767036438,122.0
64.64048433303833,65.0
64.6873517036438,127.0
64.7342324256897,65.0
64.79673504829407,149.0
64.84359431266785,76.0
64.90611243247986,160.0
64.95298075675964,62.0
65.0154857635498,147.0
65.07797241210938,51.0
65.12484622001648,144.0
65.18766736984253,53.0
65.23451781272888,140.0
65.29702973365784,50.0
65.3438892364502,155.0
65.39077925682068,45.0
65.45326256752014,142.0
65.50010585784912,71.0
65.5626380443573,153.0
65.6095290184021,58.0
65.67201232910156,158.0
65.71886467933655,83.0
65.78140425682068,167.0
65.8282687664032,97.0
65.89077234268188,180.0
65.93764758110046,128.0
65.98451113700867,184.0
66.04701328277588,154.0
66.09387922286987,208.0
66.15639114379883,157.0
66.2032675743103,211.0
66.26576638221741,186.0
66.31263780593872,237.0
66.3751380443573,218.0
66.42202949523926,227.0
66.48451900482178,243.0
66.53138780593872,212.0
66.59391832351685,261.0
66.64077877998352,221.0
66.70327806472778,283.0
66.75015306472778,240.0
66.8126380443573,293.0
66.87515139579773,243.0
66.93765377998352,323.0
66.98448014259338,250.0
67.04703545570374,339.0
67.09388828277588,273.0
67.15664601325989,359.0
67.20356154441833,280.0
67.26607847213745,361.0
67.3129529953003,290.0
67.37544322013855,401.0
67.42231488227844,286.0
67.48478245735168,410.0
67.53170204162598,312.0
67.59419798851013,416.0
67.6566858291626,322.0
67.71920680999756,414.0
67.76605129241943,341.0
67.82857751846313,414.0
67.8754370212555,340.0
67.93793964385986,409.0
68.00043320655823,342.0
68.04731178283691,428.0
68.10981297492981,342.0
68.15687537193298,412.0
68.21942973136902,355.0
68.28189063072205,397.0
68.32880520820618,364.0
68.3913004398346,390.0
68.43816471099854,387.0
68.50067901611328,382.0
68.54754686355591,388.0
68.61006569862366,396.0
68.67254042625427,411.0
68.7194151878357,397.0
68.78191471099854,425.0
68.82880306243896,402.0
68.8912889957428,460.0
68.95380568504333,398.0
69.00067782402039,476.0
69.07879257202148,405.0
69.12568974494934,478.0
69.1881651878357,408.0
69.23504400253296,492.0
69.2975447177887,414.0
69.34441494941711,500.0
69.40691471099854,400.0
69.45378994941711,495.0
69.51631331443787,393.0
69.5631811618805,504.0
69.62566423416138,407.0
69.67256450653076,501.0
69.7194254398346,390.0
69.78188276290894,504.0
69.84441590309143,394.0
69.89129042625427,482.0
69.95378994941711,393.0
70.00065016746521,471.0
70.0631673336029,379.0
70.1100389957428,451.0
70.17281436920166,375.0
70.2352979183197,446.0
70.28218197822571,376.0
70.34468579292297,417.0
70.39155006408691,378.0
70.46967363357544,411.0
70.51656126976013,362.0
70.59472846984863,379.0
70.65718030929565,370.0
70.70406341552734,359.0
70.76654767990112,370.0
70.82905077934265,354.0
70.87593626976013,357.0
70.95406460762024,330.0
71.00090646743774,374.0
71.06342482566833,322.0
71.1102979183197,383.0
71.17306280136108,321.0
71.21995186805725,385.0
71.2668149471283,314.0
71.32932162284851,396.0
71.3918137550354,305.0
71.43868732452393,398.0
71.50121092796326,310.0
71.5480625629425,408.0
71.61057782173157,304.0
71.67306327819824,399.0
71.71995377540588,304.0
71.78244042396545,423.0
71.8449547290802,305.0
71.89182186126709,411.0
71.95429039001465,312.0
72.00119304656982,410.0
72.06368803977966,325.0
72.11057901382446,421.0
72.17335247993469,317.0
72.2202000617981,404.0
72.28273558616638,340.0
72.34523153305054,414.0
72.4077661037445,340.0
72.45461988449097,409.0
72.51711010932922,353.0
72.57961893081665,394.0
72.64207053184509,365.0
72.68897867202759,392.0
72.75149059295654,382.0
72.8139910697937,378.0
72.87648487091064,380.0
72.93897819519043,376.0
72.98585820198059,383.0
73.04837107658386,301.0
73.09524393081665,272.0
73.15823936462402,205.0
73.2051408290863,189.0
73.26764035224915,24.0
73.31451725959778,6.0
74.11140894889832,44.0
74.15846228599548,273.0
74.20539212226868,648.0
74.26788640022278,648.0
74.33039116859436,649.0
74.37726783752441,649.0
74.43975281715393,649.0
74.502268075943,650.0
74.54911851882935,650.0
74.61164736747742,650.0
74.67412662506104,649.0
74.7366509437561,650.0
74.7990984916687,649.0
74.84602546691895,649.0
74.90850305557251,649.0
74.97096943855286,649.0
75.04912614822388,650.0
75.12725567817688,649.0
75.1741271018982,649.0
75.25222706794739,650.0
75.36160492897034,648.0
75.40850448608398,648.0
75.4710123538971,648.0
75.53351640701294,649.0
75.61161422729492,647.0
75.7053701877594,646.0
75.78353548049927,619.0
75.86164927482605,641.0
75.93972992897034,578.0
76.01784992218018,627.0
76.080393075943,544.0
76.1272668838501,601.0
76.18834638595581,495.0
76.25084567070007,547.0
76.32898306846619,438.0
76.4227135181427,516.0
76.50087642669678,413.0
76.59461450576782,529.0
76.67274451255798,399.0
76.73524451255798,494.0
76.7821900844574,367.0
76.87583827972412,471.0
76.9539623260498,391.0
77.01651668548584,512.0
77.07903051376343,391.0
77.14149832725525,495.0
77.20399594306946,381.0
77.26654171943665,485.0
77.3446147441864,429.0
77.42271518707275,509.0
77.51649498939514,436.0
77.57901048660278,500.0
77.64149403572083,386.0
77.7040102481842,404.0
77.76650953292847,330.0
77.82899379730225,314.0
77.89149498939514,248.0
77.9852294921875,243.0
78.06335949897766,202.0
78.12588500976562,155.0
78.18875622749329,141.0
78.26687669754028,93.0
78.31374430656433,90.0
78.37626147270203,46.0
78.45437979698181,74.0
78.50126028060913,57.0
78.56375408172607,137.0
78.65748047828674,275.0
78.73560643196106,648.0
78.78251123428345,648.0
78.84500288963318,650.0
78.90749669075012,649.0
78.9700117111206,650.0
79.0324969291687,651.0
79.09499621391296,650.0
79.15749597549438,650.0
91.60538363456726,650.0
91.66790699958801,649.0
91.71474933624268,650.0
91.77726793289185,651.0
91.83973050117493,650.0
91.90221381187439,650.0
91.96475219726562,650.0
92.04288363456726,651.0
92.0897707939148,651.0
92.15224528312683,652.0
92.1991229057312,651.0
92.26202416419983,650.0
92.32452344894409,651.0
92.37140107154846,649.0
92.4182960987091,650.0
92.46516537666321,650.0
92.52765083312988,651.0
92.57454085350037,651.0
92.62141418457031,651.0
92.66827344894409,650.0
92.71514987945557,651.0
92.77764987945557,650.0
92.82454872131348,650.0
92.87140393257141,650.0
92.91827344894409,651.0
92.96516466140747,648.0
93.02764868736267,486.0
93.07454061508179,319.0
93.12140607833862,333.0
93.16829752922058,336.0
93.21514892578125,332.0
93.26221632957458,335.0
93.32471537590027,334.0
93.37159013748169,334.0
93.41847133636475,332.0
93.46533942222595,333.0
93.51221489906311,331.0
93.57473063468933,331.0
93.62159061431885,358.0
93.66848754882812,648.0
93.71536087989807,557.0
93.77783846855164,648.0
93.82471919059753,648.0
93.88722109794617,650.0
93.93410420417786,651.0
93.9809718132019,651.0
94.0278389453888,651.0
94.07473158836365,650.0
94.13723134994507,650.0
94.18410325050354,651.0
94.23126339912415,640.0
94.27820324897766,342.0
94.34069275856018,344.0
94.38755369186401,353.0
94.43445992469788,346.0
94.48131585121155,357.0
94.5281937122345,364.0
94.59068202972412,355.0
94.63756942749023,347.0
94.68443298339844,337.0
94.73131990432739,346.0
94.77819275856018,362.0
94.84067940711975,348.0
94.88756966590881,327.0
94.93445110321045,650.0
94.98130393028259,649.0
95.02819275856018,650.0
95.09069538116455,650.0
95.13755416870117,649.0
95.20006799697876,648.0
95.24715161323547,401.0
95.30964088439941,309.0
95.35652828216553,331.0
95.40340065956116,339.0
95.48152899742126,333.0
95.52841067314148,334.0
95.59091329574585,295.0
95.63776278495789,313.0
95.68464612960815,346.0
95.73153066635132,328.0
95.79402756690979,315.0
95.84089303016663,324.0
95.90341281890869,314.0
95.95026302337646,177.0
95.99713706970215,143.0
96.044025182724,352.0
96.10653018951416,320.0
96.15339660644531,328.0
96.20026230812073,317.0
96.26272988319397,331.0
96.30964374542236,318.0
96.35652589797974,334.0
96.42014575004578,323.0
96.48264527320862,334.0
96.52953100204468,323.0
96.60767698287964,334.0
96.65450620651245,326.0
96.71700072288513,338.0
96.76388025283813,321.0
96.82638335227966,333.0
96.88887977600098,308.0
96.93575835227966,651.0
96.99828124046326,650.0
97.0451455116272,649.0
97.10764288902283,651.0
97.15451264381409,650.0
97.20139598846436,651.0
97.26388025283813,650.0
97.32639455795288,651.0
97.37327146530151,651.0
97.4357681274414,650.0
97.48261618614197,648.0
97.56075525283813,405.0
97.60764598846436,321.0
97.65450119972229,337.0
97.71702146530151,335.0
97.76388907432556,343.0
97.82635736465454,337.0
97.87325549125671,346.0
97.92015433311462,339.0
97.96702122688293,404.0
98.02950477600098,431.0
98.07640218734741,334.0
98.12325668334961,650.0
98.18575501441956,651.0
98.23288822174072,650.0
98.29545593261719,651.0
98.34230875968933,650.0
98.38920712471008,651.0
98.4360580444336,651.0
98.49855971336365,650.0
98.5454318523407,649.0
98.60796189308167,649.0
98.65478324890137,651.0
98.71733069419861,650.0
98.77980709075928,650.0
98.82669711112976,650.0
98.8735568523407,650.0
98.93605709075928,651.0
98.98296213150024,649.0
99.04543256759644,650.0
99.0923204421997,650.0
99.15482354164124,651.0
99.2016818523407,650.0
99.2644374370575,651.0
99.32691383361816,649.0
99.37375998497009,650.0
99.43630170822144,650.0
99.49878883361816,649.0
99.5456862449646,651.0
99.60816502571106,650.0
99.65504336357117,650.0
99.71754097938538,650.0
99.76441264152527,650.0
99.82692861557007,650.0
99.88938546180725,651.0
99.93629622459412,650.0
99.99879026412964,650.0
100.0613169670105,651.0
100.10816240310669,650.0
100.17064714431763,650.0
100.2175567150116,650.0
100.26461291313171,651.0
100.32710075378418,650.0
100.3895947933197,650.0
100.4364926815033,650.0
100.48332071304321,650.0
100.54582715034485,651.0
100.60842156410217,649.0
106.6314787864685,650.0
106.67836022377014,650.0
106.74085640907288,651.0
106.78773379325867,651.0
106.8502082824707,649.0
106.92833542823792,649.0
107.00646376609802,650.0
107.08457398414612,650.0
107.14708828926086,650.0
107.20962190628052,646.0
107.27208399772644,363.0
107.33460569381714,327.0
107.38148856163025,335.0
107.44398236274719,332.0
107.4908664226532,332.0
107.55333495140076,332.0
107.60020303726196,333.0
107.66275548934937,331.0
107.70960855484009,332.0
107.7721061706543,331.0
107.81900382041931,332.0
107.86587190628052,10.0
108.08462285995483,649.0
108.13144874572754,649.0
108.19397974014282,651.0
108.24103832244873,650.0
108.2879250049591,650.0
108.35047030448914,650.0
108.39731121063232,650.0
108.4442207813263,651.0
108.50670385360718,651.0
108.55358982086182,650.0
108.63168907165527,650.0
108.69417667388916,650.0
108.75667095184326,650.0
108.80356001853943,650.0
108.86608719825745,650.0
108.91296887397766,649.0
108.97545576095581,651.0
109.02232813835144,651.0
109.08485054969788,650.0
109.13172698020935,651.0
109.19421863555908,649.0
109.24108147621155,502.0
109.30357909202576,321.0
109.35046744346619,334.0
109.39732789993286,336.0
109.4598298072815,333.0
109.50671315193176,332.0
109.55355548858643,332.0
109.61609768867493,333.0
109.66297912597656,330.0
109.70984530448914,332.0
109.77232933044434,330.0
109.81921362876892,331.0
109.86609363555908,578.0
109.9285945892334,647.0
110.17860126495361,124.0
110.24140071868896,345.0
110.28833317756653,341.0
110.35082244873047,321.0
110.39771342277527,338.0
110.4445698261261,324.0
110.53833532333374,297.0
110.64771127700806,301.0
110.69457268714905,331.0
110.75707006454468,317.0
110.80396890640259,336.0
110.8508129119873,317.0
110.91331958770752,336.0
110.96020197868347,318.0
111.00708484649658,337.0
111.06957054138184,55.0
111.11646819114685,228.0
111.16332268714905,370.0
111.22583651542664,336.0
111.27292704582214,318.0
111.33542561531067,335.0
111.39792370796204,316.0
111.44480752944946,335.0
111.50726294517517,319.0
111.55417704582214,335.0
111.60103583335876,324.0
111.66355156898499,335.0
111.71042537689209,321.0
111.77291178703308,288.0
111.81979179382324,346.0
111.8666775226593,343.0
111.92917680740356,328.0
111.97963881492615,649.0
112.02654075622559,521.0
112.08904695510864,310.0
112.15152645111084,334.0
112.21402430534363,341.0
112.26090550422668,344.0
112.30778789520264,431.0
112.3702757358551,356.0
112.43277645111084,651.0
112.47965359687805,650.0
112.54215431213379,651.0
112.60462498664856,651.0
112.6671211719513,650.0
112.71402263641357,651.0
112.77653098106384,651.0
112.83903884887695,650.0
112.885901927948,649.0
112.94841289520264,649.0
112.9952757358551,650.0
113.05774569511414,651.0
113.12027215957642,651.0
113.18277263641357,650.0
113.24561953544617,650.0
113.30816411972046,651.0
113.35504388809204,651.0
113.417551279068,650.0
113.48005175590515,650.0
113.54254913330078,649.0
113.60503149032593,650.0
113.65190720558167,650.0
113.71441054344177,650.0
113.76128435134888,650.0
113.8237943649292,651.0
113.87067675590515,650.0
113.93317675590515,650.0
113.9800431728363,650.0
114.04253721237183,649.0
114.08943462371826,649.0
114.15192174911499,649.0
114.19880437850952,649.0
114.24567413330078,651.0
114.30817866325378,650.0
114.35505628585815,650.0
114.40192317962646,650.0
114.46441078186035,650.0
114.51130223274231,651.0
114.57378673553467,649.0
114.62065935134888,650.0
114.68316268920898,651.0
114.73004484176636,650.0
114.79254484176636,649.0
114.83942604064941,650.0
114.9019284248352,650.0
114.94881057739258,649.0
114.99566221237183,649.0
115.07380080223083,651.0
115.120680809021,649.0
115.183176279068,650.0
115.2300353050232,609.0
115.29286122322083,335.0
115.3397433757782,331.0
115.38662385940552,335.0
115.44908833503723,335.0
115.51158213615417,332.0
115.55849575996399,332.0
115.62098383903503,330.0
115.66787075996399,331.0
115.73036098480225,330.0
115.77724981307983,331.0
115.83974075317383,331.0
115.88660836219788,424.0
115.94911670684814,363.0
116.01160907745361,431.0
116.05849361419678,315.0
116.12099957466125,410.0
116.16787457466125,249.0
116.23035955429077,482.0
116.27766108512878,343.0
116.34016823768616,650.0
116.38703417778015,651.0
116.4495439529419,649.0
116.49642443656921,650.0
116.55891942977905,651.0
116.60579228401184,650.0
116.66826367378235,649.0
116.7151620388031,650.0
116.77765321731567,651.0
116.82455277442932,650.0
116.88704323768616,650.0
116.93390774726868,650.0
116.99642515182495,651.0
117.04327774047852,651.0
117.10579323768616,649.0
117.15265917778015,651.0
117.230792760849,650.0
117.27765965461731,650.0
117.3401403427124,651.0
117.38705229759216,650.0
117.449542760849,650.0
117.49642276763916,652.0
117.55892586708069,651.0
117.62137508392334,649.0
117.68392896652222,652.0
117.74640440940857,650.0
117.80890274047852,649.0
117.87137389183044,651.0
117.9182858467102,651.0
117.98079204559326,650.0
118.02765941619873,650.0
118.07454466819763,650.0
118.1370279788971,649.0
118.18389868736267,649.0
118.24662947654724,650.0
118.30917525291443,651.0
118.40288734436035,650.0
118.51226615905762,650.0
118.57476258277893,651.0
118.65289092063904,649.0
118.73101353645325,651.0
118.82476305961609,651.0
118.93413972854614,650.0
118.9966971874237,650.0
119.05918645858765,649.0
119.10605144500732,650.0
119.16856265068054,650.0
119.21544456481934,650.0
119.27792024612427,649.0
119.34044456481934,650.0
119.38729500770569,650.0
119.44980311393738,650.0
119.4966733455658,651.0
119.5591950416565,649.0
119.62168645858765,650.0
119.66857028007507,649.0
119.71543502807617,650.0
119.7779426574707,650.0
119.84043478965759,651.0
119.88731789588928,649.0
119.94980645179749,650.0
119.99668502807617,651.0
120.05917620658875,651.0
120.12166976928711,651.0
120.16856169700623,649.0
120.23104453086853,650.0
120.27818870544434,650.0
120.32507157325745,651.0
120.38756465911865,651.0
120.43443751335144,651.0
120.51256942749023,650.0
120.57502388954163,651.0
120.63756537437439,649.0
120.68445992469788,651.0
120.7469470500946,651.0
120.79380583763123,649.0
120.85630869865417,650.0
120.90320444107056,651.0
120.96567940711975,649.0
121.01252460479736,651.0
121.07507181167603,651.0
121.12194681167603,651.0
121.18444657325745,651.0
121.24695372581482,650.0
121.30944442749023,650.0
121.35632300376892,651.0
121.41878414154053,649.0
121.48128533363342,650.0
121.52818942070007,651.0
121.59068369865417,650.0
121.63755679130554,650.0
121.70002722740173,650.0
121.74695062637329,650.0
121.7938060760498,650.0
121.8563277721405,649.0
121.90317988395691,649.0
121.96569204330444,650.0
122.0125720500946,651.0
122.07507801055908,650.0
122.13756990432739,649.0
122.18443703651428,650.0
122.24718427658081,650.0
122.29409909248352,650.0
122.35662007331848,650.0
122.41910719871521,649.0
122.46597623825073,651.0
122.52847671508789,649.0
122.57534885406494,650.0
122.63785123825073,651.0
122.6847276687622,649.0
122.74723291397095,650.0
122.79411339759827,649.0
122.85662078857422,650.0
122.91910290718079,651.0
123.02845001220703,650.0
123.12224555015564,650.0
123.20032238960266,650.0
123.27867889404297,650.0
123.35682463645935,650.0
123.43490314483643,651.0
123.49744009971619,649.0
123.5443217754364,650.0
123.62242484092712,650.0
123.66931486129761,651.0
123.73181056976318,650.0
123.77868294715881,650.0
123.84118962287903,651.0
123.8880627155304,650.0
123.95056438446045,650.0
123.99745035171509,649.0
124.05994915962219,651.0
124.10680842399597,651.0
124.16930055618286,650.0
124.21618461608887,651.0
124.27869057655334,650.0
124.32557415962219,651.0
124.37244057655334,650.0
124.43494725227356,650.0
124.49739289283752,650.0
124.54432201385498,651.0
124.60679841041565,650.0
124.6536750793457,650.0
124.71619701385498,649.0
124.7786476612091,649.0
124.84114813804626,650.0
124.88806247711182,650.0
124.95054984092712,650.0
124.99742436408997,651.0
125.05993580818176,650.0
125.10681438446045,651.0
125.16929960250854,651.0
125.21619701385498,651.0
125.27897667884827,651.0
125.3414900302887,651.0
125.38837099075317,650.0
125.46648740768433,650.0
125.51334118843079,651.0
125.5758798122406,651.0
125.62273693084717,650.0
125.68524646759033,649.0
125.74770045280457,650.0
125.79461979866028,650.0
125.85711312294006,651.0
125.91962504386902,650.0
125.9664876461029,650.0
126.02898955345154,651.0
126.0758786201477,649.0
126.13836550712585,649.0
126.18526148796082,650.0
126.24794507026672,650.0
126.29488205909729,650.0
126.34173464775085,650.0
126.4042501449585,650.0
126.45111131668091,650.0
126.51362729072571,650.0
126.56048560142517,650.0
126.62300276756287,650.0
126.66986060142517,650.0
126.73236060142517,650.0
126.77924966812134,651.0
126.84175038337708,650.0
126.90423440933228,651.0
126.96675086021423,651.0
127.01361036300659,651.0
127.07611203193665,650.0
127.12299537658691,651.0
127.18548560142517,651.0
127.23237681388855,651.0
127.29487586021423,649.0
127.35736799240112,650.0
127.41986274719238,650.0
127.46675825119019,651.0
127.51362538337708,649.0
127.57611203193665,649.0
127.62298727035522,651.0
127.68548488616943,651.0
127.73237466812134,650.0
127.79487705230713,650.0
127.84175658226013,650.0
127.90423655509949,651.0
127.96672892570496,650.0
128.0292465686798,649.0
128.07610964775085,651.0
128.13863396644592,650.0
128.2011115550995,650.0
128.24822974205017,650.0
128.3107762336731,650.0
128.35764455795288,651.0
128.40451002120972,651.0
128.46701622009277,651.0
128.52953100204468,650.0
128.57640743255615,650.0
128.6388862133026,650.0
128.6857612133026,650.0
128.7482612133026,650.0
128.79514241218567,650.0
128.84202551841736,651.0
128.90452194213867,652.0
128.95140147209167,650.0
129.01389145851135,650.0
129.06076097488403,650.0
129.1232614517212,651.0
129.18576431274414,651.0
129.24844980239868,651.0
129.31096410751343,651.0
129.38912510871887,650.0
129.45159101486206,651.0
129.52975749969482,650.0
129.6390941143036,651.0
129.68599605560303,651.0
129.74849343299866,649.0
129.79537177085876,650.0
129.8578917980194,651.0
129.90474104881287,650.0
129.96723985671997,649.0
130.01414012908936,650.0
130.0610055923462,651.0
130.12350058555603,651.0
130.17038106918335,649.0
130.2328851222992,651.0
130.29537320137024,650.0
130.34226322174072,649.0
130.40475583076477,650.0
130.45163679122925,651.0
130.51409363746643,650.0
130.576593875885,651.0
130.6391384601593,650.0
130.7016303539276,651.0
130.74849796295166,651.0
130.7953782081604,651.0
130.85787224769592,650.0
130.9203827381134,650.0
130.9672610759735,649.0
131.0297544002533,650.0
131.0766363143921,650.0
131.1391146183014,650.0
131.18599033355713,650.0
131.24883770942688,650.0
131.29577469825745,650.0
131.35825729370117,651.0
131.4051477909088,651.0
131.46764707565308,651.0
131.5301353931427,651.0
131.57702136039734,650.0
131.63952827453613,650.0
131.6863808631897,649.0
131.74888014793396,650.0
131.7957570552826,650.0
131.85825777053833,650.0
131.90514945983887,651.0
131.9676468372345,652.0
132.0145127773285,650.0
132.07700634002686,651.0
132.12389993667603,651.0
132.1863956451416,650.0
132.23327136039734,652.0
132.2959749698639,649.0
132.34285616874695,651.0
132.40534329414368,651.0
132.46784043312073,651.0
132.51473665237427,650.0
132.57723379135132,651.0
132.63969373703003,651.0
132.7021839618683,651.0
132.7647190093994,651.0
132.82722163200378,650.0
132.88972878456116,651.0
132.93659806251526,650.0
132.99910616874695,650.0
133.04593634605408,650.0
133.10846590995789,651.0
133.15532684326172,651.0
133.20221590995789,651.0
133.26494908332825,650.0
133.32745122909546,649.0
133.3899712562561,650.0
133.45248126983643,651.0
133.51497173309326,651.0
133.5618691444397,649.0
133.62436437606812,649.0
133.67122077941895,651.0
133.73374676704407,650.0
133.79622149467468,649.0
133.84307956695557,650.0
133.9056041240692,650.0
133.96809720993042,651.0
134.0149793624878,650.0
134.07747435569763,650.0
134.12434697151184,650.0
134.18686246871948,651.0
134.233722448349,651.0
134.30260753631592,651.0
134.3494815826416,649.0
134.41199159622192,615.0
134.4744839668274,339.0
134.5213725566864,650.0
134.58385920524597,651.0
134.6463577747345,650.0
134.693256855011,651.0
134.75573563575745,650.0
134.80261135101318,650.0
134.86512279510498,650.0
134.92762398719788,650.0
134.97449111938477,650.0
135.03698468208313,650.0
135.08385682106018,650.0
135.14637303352356,650.0
135.19325804710388,651.0
135.25573897361755,650.0
135.31824779510498,650.0
135.36511731147766,650.0
135.4276466369629,650.0
135.49008107185364,651.0
135.5526225566864,650.0
135.61512303352356,651.0
135.6776225566864,651.0
135.7401087284088,650.0
135.78699731826782,647.0
135.84949040412903,401.0
135.8963701725006,323.0
135.9588644504547,332.0
136.0213770866394,333.0
136.0682487487793,331.0
136.1307327747345,331.0
136.1776282787323,332.0
136.24013113975525,330.0
136.30282330513,319.0
136.34972143173218,317.0
136.41218829154968,283.0
136.47469806671143,288.0
136.52158188819885,7.0
136.5840871334076,265.0
136.63094782829285,288.0
136.69345450401306,296.0
136.75594902038574,321.0
136.80283880233765,314.0
136.86533784866333,323.0
136.91221261024475,315.0
136.97469973564148,325.0
137.02158856391907,315.0
137.08407974243164,328.0
137.14657497406006,320.0
137.20907545089722,327.0
137.25616812705994,320.0
137.31867504119873,326.0
137.365562915802,324.0
137.42802047729492,329.0
138.06868600845337,154.0
138.1311752796173,347.0
138.17805123329163,326.0
138.24055647850037,329.0
138.30328845977783,328.0
138.36579132080078,330.0
138.4126682281494,326.0
138.47515654563904,321.0
138.53766989707947,319.0
138.6001546382904,318.0
138.64702892303467,321.0
138.70954751968384,329.0
138.7720251083374,328.0
138.81890487670898,399.0
140.30363941192627,66.0
140.36612939834595,337.0
140.41300415992737,330.0
140.47552800178528,328.0
140.53797316551208,325.0
140.61613011360168,313.0
140.6786448955536,326.0
140.74114680290222,331.0
140.81923270225525,326.0
140.89737033843994,333.0
140.95989561080933,326.0
141.0379981994629,331.0
141.13172340393066,327.0
141.1942653656006,331.0
141.25705695152283,328.0
141.3039584159851,331.0
141.39769744873047,329.0
141.50704956054688,330.0
141.58520579338074,330.0
141.63208770751953,329.0
141.69455313682556,331.0
141.77268958091736,288.0
141.92895770072937,30.0
146.6016092300415,22.0
146.64852571487427,152.0
146.71102213859558,115.0
146.75789737701416,153.0
146.82040452957153,142.0
146.88288235664368,192.0
146.92975544929504,187.0
146.99227213859558,208.0
147.03913950920105,291.0
147.1016321182251,311.0
147.164133310318,436.0
147.21100664138794,440.0
147.2743480205536,563.0
147.3368318080902,524.0
147.39934635162354,646.0
147.46183967590332,547.0
147.52429151535034,642.0
147.57122540473938,544.0
147.6337010860443,649.0
147.69621515274048,648.0
147.74309611320496,649.0
147.7960557937622,650.0
147.8650381565094,649.0
147.93869352340698,650.0
148.01617002487183,649.0
148.073668718338,650.0
148.1478521823883,650.0
148.2161421775818,651.0
148.29222297668457,649.0
148.364403963089,649.0
148.45007872581482,649.0
148.51517391204834,649.0
148.58363342285156,650.0
148.64061498641968,651.0
148.70312404632568,650.0
148.7499942779541,651.0
148.82810854911804,651.0
148.89057803153992,650.0
148.95311164855957,649.0
149.01562190055847,650.0
149.06248807907104,649.0
149.12496542930603,649.0
149.19471859931946,650.0
149.26043176651,650.0
149.344313621521,648.0
149.4113404750824,648.0
149.49390077590942,647.0
149.56056594848633,648.0
149.64343333244324,648.0
149.72392320632935,648.0
149.79337811470032,646.0
149.86028599739075,648.0
149.92698740959167,647.0
150.01083374023438,649.0
150.07528471946716,647.0
150.1378276348114,648.0
150.2003197669983,648.0
150.26284074783325,650.0
150.32531714439392,648.0
150.3878047466278,650.0
150.45030212402344,648.0
150.51278352737427,648.0
150.5752854347229,648.0
150.6378219127655,649.0
150.70031905174255,649.0
150.76282238960266,649.0
150.80969405174255,650.0
150.87215089797974,650.0
150.93467950820923,647.0
150.98155760765076,645.0
151.04408049583435,510.0
151.10659170150757,578.0
151.1534526348114,442.0
151.21594500541687,542.0
151.26306176185608,418.0
151.3255913257599,481.0
151.3880798816681,369.0
151.43497252464294,392.0
151.49746894836426,253.0
151.55997347831726,222.0
151.62245893478394,126.0
151.6693480014801,94.0
151.73183488845825,71.0
151.778710603714,61.0
151.8412139415741,56.0
151.90372514724731,20.0
151.9662265777588,46.0
152.07555961608887,62.0
152.13810014724731,31.0
152.18495893478394,131.0
152.2474582195282,63.0
152.310209274292,203.0
152.37273907661438,153.0
152.43520426750183,290.0
152.48209738731384,198.0
152.5446012020111,358.0
152.60711574554443,256.0
152.66958117485046,412.0
152.73208141326904,302.0
152.79459643363953,480.0
152.84145545959473,370.0
152.91955542564392,550.0
152.98209023475647,382.0
163.2502613067627,566.0
163.3191432952881,407.0
163.39680075645447,543.0
163.46869730949402,387.0
163.54887676239014,521.0
163.61866211891174,398.0
163.6786618232727,541.0
163.74873900413513,444.0
163.82089924812317,627.0
163.88304495811462,557.0
163.9449212551117,644.0
164.0187633037567,610.0
164.10705280303955,644.0
164.16654109954834,647.0
164.22904062271118,647.0
164.29158973693848,648.0
164.35409235954285,644.0
164.41659379005432,626.0
164.47903680801392,570.0
164.55716061592102,536.0
164.61970353126526,490.0
164.6821916103363,501.0
164.74468898773193,425.0
164.8072099685669,474.0
164.8540780544281,398.0
164.91657209396362,489.0
164.97906970977783,397.0
165.0415642261505,478.0
165.1040699481964,373.0
165.16657066345215,471.0
165.24466133117676,293.0
165.3074939250946,418.0
165.36998510360718,284.0
165.43248200416565,428.0
165.47935795783997,303.0
165.54187417030334,453.0
165.58874893188477,312.0
165.66685461997986,475.0
165.72935891151428,343.0
165.77623510360718,497.0
165.8387415409088,364.0
165.90124607086182,498.0
165.9481065273285,346.0
166.01061511039734,487.0
166.07312273979187,360.0
166.13562297821045,459.0
166.1824915409088,357.0
166.24500799179077,479.0
166.30749773979187,408.0
166.35437941551208,534.0
166.41686415672302,484.0
166.4637484550476,592.0
166.52625370025635,585.0
166.5887486934662,644.0
166.63562989234924,647.0
166.6981086730957,647.0
166.7450098991394,648.0
166.80749130249023,649.0
166.86998558044434,650.0
166.91687202453613,650.0
166.97937941551208,649.0
167.0574827194214,649.0
167.11995267868042,649.0
167.1956079006195,651.0
167.24249911308289,649.0
167.3050148487091,649.0
167.383131980896,650.0
167.430002450943,647.0
167.4924921989441,647.0
167.53936672210693,577.0
167.60187602043152,628.0
167.6643671989441,438.0
167.75808548927307,521.0
167.83622980117798,498.0
167.9143352508545,647.0
167.97688388824463,565.0
168.02375030517578,646.0
168.08624625205994,620.0
168.14875864982605,641.0
168.1956295967102,463.0
168.2581250667572,570.0
168.3209195137024,427.0
168.3833978176117,546.0
168.43028020858765,408.0
168.49278140068054,525.0
168.5552442073822,488.0
168.61778855323792,646.0
168.66465759277344,627.0
168.72715044021606,646.0
168.7896490097046,648.0
168.8365433216095,648.0
168.8990397453308,647.0
168.96153950691223,642.0
169.0084137916565,646.0
169.07092213630676,645.0
169.13340830802917,647.0
169.19591403007507,644.0
169.24278330802917,646.0
169.30547332763672,626.0
169.36801385879517,647.0
169.41490411758423,633.0
169.47741103172302,646.0
169.5398986339569,637.0
169.586763381958,648.0
169.64928579330444,602.0
169.72738885879517,637.0
169.77428007125854,476.0
169.836772441864,563.0
169.89923667907715,375.0
169.9617636203766,465.0
170.0086522102356,310.0
170.0711634159088,471.0
170.13361263275146,290.0
170.18052864074707,394.0
170.24302315711975,200.0
170.30551314353943,295.0
170.36804032325745,139.0
170.43053126335144,218.0
170.4773952960968,79.0
170.55553030967712,248.0
170.6180295944214,109.0
170.68052887916565,93.0
170.74303007125854,69.0
170.78990173339844,197.0
170.8524022102356,48.0
170.91489100456238,125.0
170.97739005088806,57.0
171.02426314353943,86.0
171.1492657661438,29.0
171.21176290512085,1.0
171.2586452960968,35.0
171.32144594192505,2.0
171.8370704650879,46.0
171.89957284927368,39.0
171.96208667755127,85.0
172.04020524024963,38.0
172.11832475662231,112.0
172.18081998825073,57.0
172.25891089439392,147.0
172.3216745853424,54.0
172.399756193161,159.0
172.47789406776428,47.0
172.55600666999817,155.0
172.6497826576233,30.0
172.72793173789978,140.0
172.77479338645935,5.0
172.83730506896973,153.0
172.89979910850525,13.0
172.9623007774353,171.0
173.07166481018066,122.0
173.13417315483093,3.0
173.19667983055115,136.0
173.27478885650635,24.0
173.33729338645935,180.0
173.39978456497192,50.0
173.462299823761,147.0
173.5091598033905,49.0
173.57167172431946,206.0
173.6341745853424,139.0
173.6810371875763,284.0
173.74355721473694,235.0
173.80604243278503,409.0
173.88416194915771,400.0
173.93105173110962,471.0
173.9935450553894,341.0
174.05605006217957,395.0
174.11853456497192,386.0
174.16539549827576,393.0
174.22792768478394,370.0
174.29042410850525,371.0
174.35317873954773,378.0
174.40003633499146,365.0
174.4625403881073,416.0
174.5250461101532,343.0
174.58754444122314,416.0
174.64999914169312,341.0
174.71254706382751,423.0
174.7594132423401,333.0
174.82191729545593,403.0
174.88440489768982,275.0
174.93129587173462,374.0
174.9937858581543,220.0
175.05629706382751,386.0
175.10315418243408,287.0
175.16566729545593,416.0
175.2281539440155,269.0
175.29066801071167,410.0
175.3375461101532,273.0
175.40005469322205,423.0
175.46252965927124,277.0
175.52504444122314,416.0
175.57190442085266,278.0
175.6343755722046,416.0
175.6969232559204,309.0
175.75940823554993,490.0
175.80630111694336,377.0
175.88440895080566,494.0
175.9469175338745,375.0
176.00937700271606,458.0
176.05627989768982,297.0
176.1187961101532,430.0
176.1812801361084,390.0
176.24377965927124,410.0
176.29066061973572,301.0
176.35352039337158,281.0
176.41600894927979,229.0
176.4784951210022,204.0
176.52538800239563,179.0
176.58788323402405,147.0
176.65038633346558,175.0
176.69725012779236,150.0
176.75975275039673,107.0
177.22850918769836,414.0
177.2753496170044,509.0
177.33811140060425,440.0
177.40061926841736,509.0
177.46310448646545,441.0
177.50997734069824,507.0
177.5724892616272,438.0
177.63498640060425,505.0
177.69748973846436,445.0
177.74437880516052,487.0
177.80686497688293,449.0
177.8693687915802,477.0
177.9318540096283,459.0
177.99432706832886,461.0
178.05685329437256,458.0
178.11936902999878,465.0
178.18187761306763,453.0
178.24437928199768,457.0
178.3070080280304,446.0
178.35394644737244,451.0
178.41644501686096,442.0
178.47893929481506,427.0
178.54143810272217,457.0
178.5883228778839,422.0
178.65080428123474,450.0
178.7133231163025,414.0
178.77579808235168,454.0
178.83831405639648,385.0
178.90077710151672,451.0
178.9789047241211,381.0
179.0414378643036,445.0
179.10392308235168,368.0
179.15080308914185,451.0
179.21332216262817,355.0
179.27580285072327,441.0
179.33831667900085,365.0
179.40079808235168,442.0
179.4633219242096,362.0
179.52579832077026,434.0
179.58831095695496,377.0
179.63517570495605,444.0
179.69768118858337,353.0
179.7601878643036,441.0
179.82268857955933,382.0
179.88514065742493,437.0
179.94764041900635,379.0
179.9945740699768,444.0
180.0570731163025,391.0
180.11954808235168,438.0
180.18206453323364,395.0
180.24456453323364,422.0
180.30726385116577,397.0
180.36978816986084,452.0
180.4166715145111,422.0
180.47916531562805,434.0
180.54167294502258,434.0
180.60418152809143,432.0
180.68229007720947,436.0
180.72917485237122,410.0
180.79167985916138,442.0
180.85416984558105,386.0
180.91667294502258,459.0
180.97918272018433,395.0
181.041663646698,417.0
181.0885546207428,347.0
181.15104579925537,364.0
181.213538646698,265.0
181.27605509757996,316.0
181.33879113197327,215.0
181.3856565952301,272.0
181.44816613197327,171.0
181.51067280769348,270.0
181.57316780090332,229.0
181.62004232406616,336.0
181.682541847229,258.0
181.74503302574158,378.0
181.8075246810913,316.0
181.8543999195099,403.0
181.9169008731842,354.0
181.97937941551208,415.0
182.0419158935547,360.0
182.08878469467163,415.0
182.16692233085632,356.0
182.22937154769897,410.0
182.29190587997437,366.0
182.33899688720703,410.0
182.40148377418518,374.0
182.46399068832397,402.0
182.5265018939972,390.0
182.58900547027588,408.0
182.63588523864746,405.0
182.69837832450867,416.0
182.76087284088135,423.0
182.823383808136,437.0
182.8858301639557,459.0
182.94836616516113,454.0
183.01087546348572,488.0
183.0577630996704,478.0
183.12024569511414,525.0
183.1827540397644,494.0
183.24523448944092,557.0
183.30790972709656,515.0
183.3548333644867,580.0
183.41734313964844,519.0
183.49546909332275,579.0
183.55792665481567,500.0
183.63604760169983,579.0
183.71419978141785,499.0
183.77671766281128,572.0
183.83922028541565,505.0
183.90171194076538,568.0
183.94857573509216,501.0
184.011079788208,564.0
184.07360172271729,493.0
184.1360993385315,570.0
184.198575258255,482.0
184.2610957622528,543.0
184.3238525390625,494.0
184.3863503932953,529.0
184.44883370399475,481.0
184.49572277069092,521.0
184.55821251869202,490.0
184.6207139492035,528.0
184.68322205543518,456.0
184.73008131980896,502.0
184.8081796169281,470.0
184.8550865650177,481.0
184.91758966445923,466.0
184.98008227348328,469.0
185.0425844192505,464.0
185.0894649028778,463.0
185.15196204185486,470.0
185.21447229385376,447.0
185.26133227348328,472.0
185.32385730743408,420.0
185.38635683059692,474.0
185.44883728027344,412.0
185.51134943962097,463.0
185.5738320350647,391.0
185.6207070350647,446.0
185.68321251869202,391.0
185.74570512771606,428.0
185.7925956249237,358.0
185.85509061813354,456.0
185.91758131980896,371.0
185.9801037311554,435.0
186.04258251190186,360.0
186.10508227348328,442.0
186.15195751190186,363.0
186.21447944641113,444.0
186.29255366325378,354.0
186.3400650024414,447.0
186.40257620811462,351.0
186.46506524085999,446.0
186.52758026123047,372.0
186.60569858551025,436.0
186.6681957244873,368.0
186.71507239341736,429.0
186.77758383750916,372.0
186.84007287025452,405.0
186.9025580883026,377.0
186.9650580883026,407.0
187.0119390487671,354.0
187.07444143295288,370.0
187.13694214820862,370.0
187.199449300766,345.0
187.26194787025452,333.0
187.30881547927856,324.0
187.3713355064392,341.0
187.43384408950806,301.0
187.49630856513977,333.0
187.5587763786316,289.0
187.6057050228119,319.0
187.66819095611572,276.0
187.73070526123047,323.0
187.79320693016052,262.0
187.85569977760315,336.0
187.93377780914307,281.0
188.0119068622589,355.0
188.0744593143463,308.0
188.13694882392883,378.0
188.1994333267212,316.0
188.24631023406982,395.0
188.30922198295593,322.0
188.37175965309143,404.0
188.4342396259308,308.0
188.4967532157898,401.0
188.54363465309143,309.0
188.621764421463,413.0
188.68425464630127,330.0
188.74675393104553,402.0
188.79362726211548,342.0
188.85613441467285,403.0
188.93426418304443,322.0
188.99673771858215,395.0
189.05925226211548,343.0
189.1061234474182,375.0
189.17022800445557,337.0
189.2483196258545,408.0
189.3108425140381,360.0
189.37334847450256,375.0
189.43586039543152,371.0
189.49836897850037,412.0
189.56085014343262,390.0
189.6233425140381,375.0
189.6858425140381,408.0
189.7483868598938,368.0
189.81085634231567,396.0
189.87335872650146,387.0
189.93585801124573,406.0
189.9983503818512,396.0
190.06086683273315,428.0
190.12336444854736,375.0
190.1858570575714,426.0
190.24831748008728,373.0
190.32675647735596,431.0
190.3891818523407,327.0
190.4516966342926,407.0
190.51418256759644,325.0
190.5923240184784,399.0
190.67047786712646,307.0
190.7485318183899,385.0
190.8110635280609,290.0
190.87353014945984,354.0
190.95165419578552,290.0
191.0141589641571,324.0
191.09230518341064,225.0
191.15480732917786,293.0
191.21731281280518,167.0
191.27981448173523,158.0
191.34261345863342,43.0
191.40510368347168,47.0
191.7176034450531,16.0
191.78008890151978,95.0
191.84258842468262,95.0
191.9050931930542,174.0
191.96760535240173,169.0
192.03010082244873,180.0
192.09259462356567,216.0
192.15510511398315,251.0
192.21760249137878,247.0
192.2800898551941,255.0
192.34281754493713,273.0
192.38970136642456,269.0
192.46782517433167,304.0
192.53033709526062,276.0
192.59284210205078,329.0
192.65532970428467,281.0
192.71782088279724,330.0
192.78034591674805,274.0
192.84282207489014,327.0
192.92095255851746,256.0
192.9834680557251,327.0
193.04595112800598,259.0
193.10844683647156,318.0
193.1709635257721,259.0
193.23346257209778,320.0
193.31170845031738,238.0
193.38984560966492,323.0
193.467999458313,250.0
193.546133518219,322.0
193.6086390018463,258.0
193.67113208770752,323.0
193.7336277961731,248.0
193.7961504459381,332.0
193.858642578125,256.0
193.92112278938293,321.0
193.98363780975342,276.0
194.04612231254578,306.0
194.1086277961731,267.0
194.17113161087036,324.0
194.2336301803589,274.0
194.29614567756653,309.0
194.35860991477966,296.0
194.4211299419403,305.0
194.48363995552063,297.0
194.54613971710205,309.0
194.60859513282776,314.0
194.67112636566162,308.0
194.73362398147583,334.0
194.79612278938293,298.0
194.85863947868347,330.0
194.9159038066864,304.0
194.97841596603394,344.0
195.05652403831482,305.0
195.1190321445465,362.0
195.18153405189514,299.0
200.63171076774597,365.0
200.69416213035583,306.0
200.75667023658752,354.0
200.81919646263123,307.0
200.88172030448914,379.0
200.95981979370117,302.0
201.00671291351318,378.0
201.06921768188477,274.0
201.13170409202576,324.0
201.19420409202576,253.0
201.25672054290771,296.0
201.33500933647156,188.0
201.3975648880005,253.0
201.46005702018738,167.0
201.5225601196289,231.0
201.58507561683655,155.0
201.66317415237427,196.0
201.7256908416748,138.0
201.78814220428467,174.0
201.85065579414368,130.0
201.91317629814148,175.0
201.9756999015808,137.0
202.03818941116333,159.0
202.10069060325623,143.0
202.16319036483765,160.0
202.2256898880005,150.0
202.28817129135132,174.0
202.35064792633057,187.0
202.41319584846497,170.0
202.47568082809448,193.0
202.55380535125732,173.0
202.61630725860596,202.0
202.67880082130432,39.0
203.41317558288574,3.0
203.52255034446716,90.0
203.5850555896759,35.0
203.6631920337677,132.0
203.7256898880005,69.0
203.78819012641907,143.0
203.85067653656006,76.0
203.89757537841797,175.0
203.96005845069885,103.0
204.02257251739502,198.0
204.08506631851196,131.0
204.14758014678955,226.0
204.21005702018738,166.0
204.27257347106934,250.0
204.3353533744812,216.0
204.39784121513367,274.0
204.4603931903839,240.0
204.52288150787354,304.0
204.58539724349976,274.0
204.66351914405823,315.0
204.72601461410522,307.0
204.78846883773804,348.0
204.850998878479,349.0
204.9135160446167,354.0
204.9759979248047,381.0
205.03851294517517,386.0
205.10101413726807,416.0
205.1635160446167,394.0
205.22599935531616,436.0
205.28851342201233,411.0
205.35125398635864,479.0
205.41373872756958,443.0
205.4762544631958,491.0
205.53875517845154,459.0
205.6012122631073,538.0
205.66374683380127,488.0
205.72626304626465,567.0
205.78874707221985,491.0
205.85126161575317,582.0
205.9137511253357,508.0
205.97624897956848,588.0
206.03873944282532,519.0
206.1012396812439,595.0
206.14812088012695,516.0
206.2106213569641,596.0
206.27313113212585,504.0
206.31999945640564,583.0
206.39808630943298,531.0
206.47623372077942,581.0
206.5387635231018,524.0
206.63248372077942,588.0
206.7262246608734,522.0
206.8043475151062,584.0
206.8512625694275,495.0
206.9137601852417,568.0
206.99186491966248,501.0
207.06996202468872,535.0
207.13248825073242,493.0
207.19498872756958,519.0
207.25750374794006,494.0
207.31996202468872,497.0
207.41392135620117,499.0
207.4764769077301,488.0
207.5389506816864,486.0
207.60147047042847,488.0
207.6483507156372,512.0
207.7264368534088,470.0
207.80455088615417,511.0
207.86704564094543,461.0
207.92955017089844,505.0
207.992094039917,437.0
208.05459308624268,531.0
208.10146141052246,422.0
208.1639688014984,496.0
208.24205017089844,435.0
208.32018160820007,487.0
208.3827419281006,425.0
208.4452052116394,497.0
208.50770497322083,411.0
208.55458569526672,500.0
208.6170952320099,405.0
208.66395902633667,488.0
208.7420551776886,409.0
208.82017493247986,479.0
208.89832830429077,415.0
208.96084928512573,484.0
209.02334451675415,422.0
209.07023000717163,478.0
209.13271737098694,416.0
209.17960119247437,480.0
209.2420995235443,413.0
209.30455684661865,468.0
209.38283920288086,429.0
209.46097469329834,452.0
209.52350091934204,428.0
209.58595657348633,428.0
209.67971968650818,420.0
209.74221539497375,414.0
209.8047218322754,400.0
209.88283562660217,390.0
209.9765887260437,401.0
210.0547354221344,379.0
210.11725759506226,413.0
210.16413593292236,376.0
210.2266149520874,423.0
210.30474853515625,372.0
210.38299083709717,423.0
210.44551515579224,362.0
210.49241399765015,426.0
210.5861587524414,342.0
210.71113395690918,426.0
210.78924894332886,345.0
210.86739230155945,416.0
210.9142997264862,325.0
210.9767825603485,391.0
211.02365732192993,330.0
211.08614492416382,392.0
211.13301992416382,302.0
211.21111679077148,366.0
211.3048746585846,269.0
211.36754846572876,334.0
211.43004369735718,252.0
211.47692131996155,307.0
211.53938603401184,259.0
211.60191774368286,320.0
211.64880108833313,282.0
211.71130752563477,351.0
211.75818347930908,338.0
211.82068467140198,401.0
211.8831810951233,354.0
211.93001580238342,437.0
211.99255681037903,433.0
212.0394253730774,464.0
212.1019148826599,456.0
212.16441917419434,498.0
212.21130084991455,503.0
212.2737991809845,502.0
212.32065558433533,495.0
212.38318705558777,477.0
212.44566679000854,485.0
212.4925479888916,447.0
212.55505084991455,463.0
212.6175582408905,408.0
212.66442227363586,427.0
212.7269172668457,376.0
212.77379965782166,415.0
212.83629083633423,362.0
212.88318252563477,410.0
212.9456923007965,358.0
213.0081889629364,508.0
213.0550501346588,493.0
213.11754179000854,646.0
213.19568014144897,646.0
213.24256491661072,648.0
213.30505514144897,647.0
213.35217094421387,649.0
213.41471576690674,647.0
213.46157431602478,647.0
213.5240819454193,644.0
213.5866014957428,645.0
213.63347244262695,579.0
213.6959707736969,629.0
213.758465051651,541.0
213.8053333759308,596.0
213.86784076690674,517.0
213.9303412437439,545.0
213.977201461792,483.0
214.0397229194641,497.0
214.10223627090454,451.0
214.14908456802368,469.0
214.2115833759308,410.0
214.27405381202698,429.0
214.3370110988617,399.0
214.38389468193054,373.0
214.44640445709229,396.0
214.4932677745819,369.0
214.55578565597534,357.0
214.61827754974365,349.0
214.66514658927917,352.0
214.72765517234802,318.0
214.77453660964966,362.0
214.8369846343994,288.0
214.89948892593384,346.0
214.96202898025513,262.0
215.00889348983765,321.0
215.07140040397644,249.0
215.14954710006714,298.0
215.21202778816223,222.0
215.2745270729065,290.0
215.33721160888672,209.0
215.38412857055664,285.0
215.44661402702332,185.0
215.49348616600037,265.0
215.55601000785828,183.0
215.61850142478943,262.0
215.66538429260254,155.0
215.72786116600037,232.0
215.79036736488342,147.0
215.85287594795227,208.0
215.89976000785828,143.0
215.96225214004517,202.0
216.02473640441895,131.0
216.07163333892822,181.0
216.13411140441895,118.0
216.1809961795807,163.0
216.24350929260254,125.0
216.30598735809326,145.0
216.3531346321106,139.0
216.41563963890076,157.0
216.47813987731934,127.0
216.52500009536743,125.0
216.58752131462097,110.0
216.65000915527344,75.0
216.69689750671387,81.0
216.75938892364502,35.0
216.80624914169312,49.0
216.88008427619934,22.0
216.94007658958435,60.0
217.0010859966278,49.0
217.07143092155457,124.0
217.11831617355347,91.0
217.18079710006714,182.0
217.22767519950867,144.0
217.29017329216003,238.0
217.35332822799683,168.0
217.41584539413452,243.0
217.46270394325256,133.0
217.5252285003662,149.0
217.5877194404602,46.0
217.6345829963684,122.0
217.69708776474,2.0
217.75958609580994,65.0
217.88206481933594,72.0
217.9420485496521,41.0
217.99811458587646,132.0
218.06065559387207,135.0
218.1075472831726,186.0
218.17003917694092,127.0
218.2325303554535,191.0
218.2794156074524,112.0
218.34191989898682,173.0
218.38878846168518,82.0
218.4513018131256,140.0
218.51378464698792,89.0
218.57625818252563,120.0
218.6231758594513,111.0
218.68565487861633,144.0
218.73252964019775,155.0
218.7950518131256,168.0
218.85752940177917,191.0
218.90441823005676,215.0
218.96688985824585,232.0
219.04504585266113,220.0
219.09191632270813,272.0
219.15440464019775,243.0
219.21689820289612,293.0
219.2637894153595,246.0
219.3262791633606,295.0
219.37349271774292,271.0
219.43597292900085,318.0
219.49846720695496,284.0
219.54535007476807,360.0
219.60785746574402,291.0
219.65473318099976,378.0
219.71722602844238,326.0
219.77971696853638,392.0
219.8266167640686,326.0
219.88909912109375,428.0
219.95159482955933,335.0
219.9984917640686,436.0
220.06098318099976,355.0
220.1078658103943,448.0
220.17034935951233,374.0
220.23285841941833,444.0
220.27971720695496,383.0
220.34224200248718,440.0
220.40473413467407,390.0
220.45159196853638,445.0
220.5141077041626,387.0
220.57656049728394,425.0
220.63906121253967,383.0
220.7015929222107,382.0
220.74849009513855,357.0
220.8109745979309,389.0
220.87346744537354,366.0
220.93599152565002,412.0
220.9984908103943,409.0
221.06097054481506,413.0
221.10784935951233,415.0
221.17034244537354,391.0
221.21722555160522,428.0
221.2797408103943,386.0
221.34250235557556,413.0
221.4050590991974,353.0
221.45194578170776,386.0
221.5144293308258,319.0
221.57692122459412,354.0
221.6394202709198,297.0
221.68631601333618,398.0
221.7487952709198,340.0
221.79567670822144,458.0
221.8581736087799,405.0
221.92066884040833,522.0
221.9831840991974,469.0
222.03005647659302,588.0
222.0925636291504,535.0
222.1550486087799,645.0
222.21754264831543,600.0
222.2644283771515,645.0
222.32692646980286,643.0
222.38963723182678,647.0
222.43651819229126,647.0
222.49902415275574,649.0
222.56151604652405,649.0
222.6083779335022,648.0
222.6708962917328,648.0
222.73337769508362,649.0
222.78026747703552,648.0
222.84275126457214,648.0
222.92088413238525,648.0
222.96777081489563,647.0
223.03024768829346,649.0
223.0771427154541,649.0
223.13962054252625,647.0
223.20212030410767,646.0
223.24897122383118,645.0
223.31151461601257,595.0
223.35886764526367,606.0
223.4213559627533,553.0
223.48384737968445,556.0
223.5307319164276,526.0
223.59324598312378,559.0
223.65573740005493,489.0
223.70260334014893,547.0
223.76510071754456,479.0
223.82759833335876,540.0
223.87448024749756,463.0
223.9369888305664,508.0
223.99947237968445,439.0
224.04637002944946,519.0
224.10884761810303,397.0
224.15568900108337,498.0
224.21824645996094,418.0
224.28073358535767,469.0
224.3276150226593,400.0
224.39028120040894,477.0
224.4528033733368,388.0
224.51526474952698,458.0
224.5621747970581,396.0
224.6246771812439,455.0
224.68718361854553,391.0
224.73406410217285,442.0
224.81218194961548,400.0
224.8590486049652,439.0
224.92156553268433,401.0
224.98406553268433,408.0
225.04655718803406,395.0
225.10904908180237,393.0
225.15594291687012,375.0
225.21843314170837,379.0
225.2652928829193,381.0
225.32780146598816,357.0
225.390540599823,367.0
225.43740582466125,357.0
225.49989771842957,389.0
225.56239891052246,344.0
225.60928320884705,397.0
225.67177486419678,351.0
225.73427391052246,401.0
225.78115820884705,354.0
225.84365582466125,421.0
225.90612530708313,363.0
225.96861577033997,426.0
226.03116273880005,369.0
226.0780303478241,433.0
226.1405484676361,382.0
226.2030384540558,448.0
226.24992203712463,373.0
226.31242442131042,457.0
226.37514543533325,393.0
226.4376358985901,462.0
226.484521150589,404.0
226.54699611663818,466.0
226.60951256752014,390.0
226.65638160705566,473.0
226.71889925003052,387.0
226.78139567375183,448.0
226.84389352798462,391.0
226.9063742160797,437.0
226.95326352119446,381.0
227.01575422286987,430.0
227.07824802398682,386.0
227.12513780593872,426.0
227.1876301765442,386.0
227.25012254714966,404.0
227.29701018333435,388.0
227.35952425003052,379.0
227.4219663143158,378.0
227.48451495170593,359.0
227.53138756752014,358.0
227.59389758110046,347.0
227.65638899803162,341.0
227.70327019691467,314.0
227.7657608985901,331.0
227.81262707710266,278.0
227.9064018726349,279.0
227.98451375961304,223.0
228.03991150856018,241.0
228.1024134159088,166.0
228.16491031646729,207.0
228.22745323181152,113.0
228.2899374961853,175.0
228.33683371543884,94.0
228.3993353843689,160.0
228.46183681488037,103.0
228.52432775497437,170.0
228.6024034023285,102.0
228.6805658340454,218.0
228.7430443763733,157.0
228.82119035720825,249.0
228.8836853504181,181.0
228.94619965553284,285.0
228.99306964874268,196.0
229.05556297302246,284.0
229.1024353504181,237.0
229.16495752334595,275.0
229.22743773460388,243.0
229.28994035720825,299.0
229.33683490753174,246.0
229.39958596229553,291.0
229.4620885848999,274.0
229.5245966911316,292.0
229.57145524024963,270.0
229.63398027420044,280.0
229.69646406173706,270.0
229.75897359848022,266.0
229.80585384368896,272.0
229.8683466911316,252.0
229.93084621429443,265.0
229.97773098945618,253.0
230.04021382331848,268.0
230.10272216796875,235.0
230.1652216911316,274.0
230.21210145950317,236.0
230.27459907531738,284.0
230.33708429336548,240.0
230.39981269836426,295.0
230.4623317718506,238.0
230.52481317520142,309.0
230.57166624069214,245.0
230.6341643333435,319.0
230.6967053413391,248.0
230.75921368598938,341.0
230.83732748031616,246.0
230.8998122215271,330.0
230.94670248031616,265.0
231.009211063385,344.0
231.07170224189758,266.0
231.1342215538025,345.0
231.18108439445496,284.0
231.24359011650085,372.0
231.30607891082764,313.0
231.35293698310852,371.0
231.41544842720032,305.0
231.47794675827026,361.0
231.54043793678284,335.0
231.60293841362,356.0
231.64983487129211,331.0
231.71233987808228,363.0
231.7748155593872,348.0
231.83732748031616,359.0
231.88420414924622,354.0
231.94669461250305,360.0
232.00919795036316,346.0
232.07170224189758,349.0
232.13418793678284,354.0
232.19668817520142,334.0
232.2435851097107,364.0
232.30608367919922,320.0
232.36892914772034,377.0
232.41579723358154,301.0
232.49391984939575,365.0
232.54079151153564,307.0
232.6032998561859,370.0
232.6657910346985,305.0
232.7283067703247,363.0
232.7907965183258,308.0
232.85329341888428,373.0
232.91579151153564,292.0
232.97829270362854,346.0
233.02519297599792,288.0
233.08769178390503,358.0
233.15018677711487,266.0
233.2126660346985,355.0
233.27518320083618,263.0
233.32206773757935,333.0
233.3845624923706,252.0
233.44705629348755,323.0
233.49394249916077,252.0
233.55642533302307,315.0
233.6189157962799,262.0
233.68143105506897,307.0
233.7283136844635,285.0
233.79079294204712,299.0
233.85330843925476,281.0
233.9001715183258,322.0
233.96268725395203,297.0
234.02519059181213,313.0
234.0876681804657,302.0
234.1345660686493,310.0
234.19704818725586,321.0
234.25953149795532,315.0
234.30643916130066,332.0
234.36929774284363,313.0
234.43179440498352,346.0
234.47869110107422,305.0
234.54117727279663,353.0
234.60367941856384,311.0
234.6661822795868,367.0
234.72866892814636,331.0
234.79113698005676,370.0
234.85369062423706,320.0
234.91618418693542,402.0
234.97866940498352,318.0
235.03585767745972,405.0
235.09836554527283,353.0
235.16086339950562,418.0
235.2233865261078,351.0
235.2858726978302,418.0
235.34836983680725,361.0
235.4108693599701,444.0
235.47345542907715,368.0
235.5358681678772,431.0
235.598388671875,371.0
235.6608853340149,435.0
235.72336435317993,376.0
235.78587865829468,419.0
235.84837436676025,360.0
235.92648434638977,415.0
235.9889931678772,348.0
236.05151176452637,390.0
236.12961864471436,344.0
236.19209837913513,375.0
236.25461983680725,350.0
236.31712222099304,368.0
236.3799693584442,353.0
236.44246315956116,360.0
236.50496125221252,355.0
236.56742429733276,349.0
236.62995839118958,362.0
236.69246006011963,357.0
236.75495553016663,369.0
236.81745553016663,348.0
236.87996006011963,363.0
236.94246673583984,343.0
237.00497126579285,381.0
237.0518524646759,334.0
237.11432909965515,365.0
237.1768479347229,321.0
237.22370600700378,392.0
237.28621292114258,329.0
237.34870529174805,406.0
237.39588570594788,321.0
237.48959279060364,390.0
237.55208778381348,329.0
237.63022184371948,386.0
237.70834302902222,316.0
237.77086234092712,386.0
237.84897422790527,302.0
237.91146278381348,384.0
237.97397923469543,308.0
238.03651976585388,387.0
238.0990071296692,331.0
238.16149616241455,388.0
238.20838975906372,348.0
238.27087926864624,392.0
238.33337664604187,349.0
238.39614844322205,416.0
238.45864939689636,373.0
238.50553059577942,406.0
238.56798028945923,386.0
238.63051414489746,410.0
238.69302821159363,377.0
238.75551843643188,386.0
238.81802320480347,361.0
238.88050770759583,347.0
238.943026304245,355.0
239.00553178787231,317.0
239.0680136680603,330.0
239.1305332183838,299.0
239.19302487373352,329.0
239.25552368164062,266.0
239.30239701271057,313.0
239.3650803565979,267.0
239.427640914917,308.0
239.49013829231262,268.0
239.55263686180115,308.0
239.5994951725006,244.0
239.6620135307312,321.0
239.72450423240662,243.0
239.7870216369629,315.0
239.84946703910828,270.0
239.91199564933777,325.0
239.97449684143066,260.0
1.5975396633148193,313.0
1.7225358486175537,492.0
1.816286325454712,647.0
1.925638198852539,650.0
2.0194129943847656,650.0
2.128800868988037,651.0
2.2225096225738525,651.0
2.331928253173828,650.0
2.425678014755249,651.0
2.519439458847046,650.0
2.628787040710449,650.0
2.7225358486175537,649.0
2.839157819747925,651.0
2.96093487739563,650.0
3.086560010910034,650.0
3.1859347820281982,647.0
3.310957670211792,591.0
3.4569849967956543,455.0
3.621147632598877,304.0
3.7454581260681152,109.0
3.807981014251709,24.0
3.917351722717285,129.0
4.026728630065918,299.0
4.120463609695435,482.0
4.214227199554443,641.0
4.307964563369751,650.0
4.417342185974121,649.0
4.511103868484497,651.0
4.620473384857178,651.0
4.729853630065918,651.0
4.839200973510742,651.0
4.9486048221588135,651.0
5.042353868484497,650.0
5.151713848114014,651.0
5.261098861694336,649.0
5.370465517044067,649.0
5.4958555698394775,651.0
5.60519552230835,649.0
5.698973655700684,634.0
5.792714595794678,516.0
5.886465072631836,369.0
5.980216026306152,187.0
6.027090311050415,29.0
6.136465549468994,119.0
6.230228662490845,251.0
6.3239665031433105,427.0
6.433569431304932,636.0
6.527339935302734,650.0
6.636666774749756,650.0
6.736845970153809,650.0
6.846255779266357,650.0
6.946019172668457,651.0
7.076578855514526,651.0
7.201567888259888,651.0
7.310938358306885,650.0
7.404709100723267,650.0
7.514084577560425,651.0
7.607817888259888,649.0
7.732784271240234,651.0
7.842187404632568,650.0
7.951538562774658,647.0
8.092161893844604,556.0
8.18593716621399,440.0
8.295334815979004,350.0
8.404688835144043,217.0
8.4518563747406,43.0
8.561218976974487,163.0
8.686231136322021,315.0
8.795592546463013,502.0
8.904966592788696,649.0
9.014357328414917,650.0
9.154970645904541,650.0
9.29557752609253,650.0
9.436455965042114,649.0
9.577073812484741,650.0
9.68639874458313,651.0
9.780181884765625,649.0
9.889564275741577,650.0
9.998944520950317,651.0
10.092704772949219,650.0
10.186447381973267,650.0
10.295785188674927,650.0
10.405193090438843,649.0
10.51474905014038,637.0
10.639729499816895,516.0
10.764745712280273,357.0
10.858464479446411,175.0
11.014734983444214,55.0
11.10850739479065,197.0
11.217868089675903,323.0
11.327259302139282,488.0
11.431280136108398,648.0
11.525065898895264,651.0
11.650062799453735,651.0
11.775062561035156,651.0
11.88443660736084,651.0
11.993836164474487,650.0
12.103188514709473,649.0
12.212534427642822,649.0
12.337584733963013,651.0
12.447309255599976,649.0
12.556676626205444,651.0
12.666048049926758,649.0
12.775408744812012,648.0
12.869151592254639,596.0
12.978558778762817,440.0
22.855602979660034,274.0
22.98058843612671,116.0
23.230618000030518,105.0
23.339965343475342,260.0
23.43400263786316,456.0
23.52780032157898,614.0
23.621544122695923,650.0
23.730931997299194,651.0
23.809041500091553,651.0
23.91841697692871,651.0
24.012168645858765,651.0
24.10593032836914,650.0
24.215306043624878,650.0
24.309057474136353,651.0
24.496511220932007,651.0
24.605889558792114,649.0
24.74653196334839,642.0
24.840291738510132,565.0
24.949655294418335,458.0
25.105908393859863,312.0
25.215301275253296,141.0
25.340287923812866,8.0
25.793633222579956,32.0
25.934290885925293,147.0
26.04364275932312,309.0
26.16868782043457,494.0
26.324882984161377,648.0
26.434474229812622,649.0
26.54389500617981,650.0
26.655491590499878,650.0
26.796098470687866,650.0
26.921111822128296,650.0
27.030508041381836,649.0
27.155504941940308,651.0
27.264887809753418,650.0
27.405470371246338,649.0
27.5305016040802,650.0
27.639885425567627,651.0
27.7492356300354,651.0
27.843019247055054,648.0
27.952385663986206,588.0
28.1085946559906,418.0
28.217997312545776,207.0
28.28048610687256,37.0
28.389878749847412,137.0
28.49926209449768,228.0
28.608624935150146,394.0
28.796083211898804,578.0
28.921111345291138,649.0
29.03050971031189,651.0
29.155495405197144,650.0
29.2648606300354,649.0
29.389878034591675,651.0
29.499555587768555,651.0
29.608925342559814,651.0
29.73392677307129,649.0
29.84330701828003,649.0
29.952677249908447,649.0
30.07766556739807,650.0
30.202691793441772,649.0
30.31205916404724,648.0
30.468483924865723,608.0
30.59348440170288,480.0
30.71848154067993,300.0
30.84347438812256,132.0
31.0309841632843,43.0
31.155975103378296,156.0
31.26535725593567,290.0
31.39036536216736,427.0
31.530972003936768,603.0
31.65596842765808,649.0
31.780948877334595,649.0
31.905982971191406,649.0
32.03098201751709,651.0
32.140342235565186,651.0
32.26535749435425,649.0
32.42160415649414,650.0
32.500086069107056,61.0
32.56257367134094,650.0
32.7031946182251,650.0
32.82820224761963,651.0
32.95320105552673,650.0
33.07821607589722,650.0
33.203219413757324,650.0
33.32820725440979,649.0
33.45345091819763,649.0
33.5159387588501,342.0
33.59402132034302,650.0
33.67218279838562,136.0
33.73470091819763,649.0
33.79714751243591,187.0
33.85970187187195,534.0
33.92218017578125,346.0
33.98467707633972,276.0
34.047189712524414,532.0
34.1877715587616,646.0
34.31280708312988,649.0
34.438074350357056,650.0
34.57871866226196,650.0
34.70374393463135,649.0
34.8287250995636,650.0
34.969351291656494,650.0
35.094353675842285,651.0
35.23497200012207,649.0
35.35997724533081,651.0
35.51644420623779,650.0
35.67062520980835,651.0
35.79565382003784,650.0
35.951900243759155,649.0
36.1081223487854,645.0
36.295615434646606,546.0
36.45186734199524,405.0
36.70186972618103,226.0
36.858144998550415,14.0
36.92067265510559,103.0
37.06127333641052,262.0
37.18628120422363,401.0
37.326921463012695,569.0
37.467766761779785,650.0
37.59275698661804,651.0
37.733375787734985,651.0
37.85838222503662,651.0
37.99903154373169,651.0
38.13963747024536,651.0
38.280272245407104,649.0
38.436527490615845,650.0
38.577128648757935,651.0
38.717758655548096,649.0
38.85839223861694,651.0
38.99902033805847,650.0
39.155269384384155,648.0
39.29589128494263,643.0
39.436497926712036,541.0
39.57736539840698,399.0
39.71795606613159,231.0
39.858609437942505,89.0
39.93674087524414,57.0
39.999237060546875,342.0
40.07737326622009,124.0
40.15549612045288,640.0
40.21800446510315,38.0
40.29608607292175,436.0
40.35862708091736,465.0
40.436750173568726,76.0
40.51488471031189,649.0
40.65548849105835,650.0
40.733622789382935,643.0
40.8273708820343,649.0
40.96799993515015,651.0
41.155492305755615,649.0
41.29612374305725,651.0
41.436739444732666,649.0
41.57756471633911,651.0
41.718201637268066,650.0
41.85878849029541,651.0
42.015034675598145,651.0
42.15569806098938,651.0
42.3119580745697,651.0
42.45276188850403,649.0
42.577821493148804,649.0
42.7183940410614,648.0
42.78094935417175,51.0
42.859052419662476,553.0
42.92157340049744,160.0
42.984073877334595,347.0
43.06217646598816,370.0
43.124688386917114,107.0
43.2028067111969,549.0
43.343443632125854,650.0
43.468684911727905,651.0
43.60929250717163,651.0
43.74991178512573,651.0
43.89055013656616,651.0
44.01554274559021,651.0
44.15616750717163,651.0
44.296786308288574,650.0
44.42180776596069,651.0
44.562416791915894,651.0
44.703040599823,651.0
44.84368348121643,649.0
44.98430013656616,651.0
45.12491011619568,649.0
45.26555252075195,651.0
45.40613102912903,649.0
45.547096967697144,587.0
45.68771696090698,398.0
45.828328371047974,173.0
46.04707336425781,91.0
46.18769574165344,210.0
46.328322410583496,418.0
46.46913504600525,631.0
46.609811544418335,650.0
46.75042152404785,651.0
46.891056299209595,650.0
47.031668186187744,650.0
47.156673192977905,651.0
47.297311782836914,650.0
47.37543773651123,228.0
47.43793725967407,650.0
47.516040325164795,229.0
47.5785493850708,650.0
47.71917271614075,651.0
47.891056299209595,651.0
48.03167915344238,650.0
48.17229747772217,651.0
48.31288766860962,651.0
48.46941828727722,651.0
48.61005210876465,651.0
48.76630163192749,649.0
48.906925201416016,650.0
49.04755187034607,650.0
49.12567210197449,368.0
49.18816089630127,649.0
49.26629996299744,533.0
49.34441876411438,651.0
49.42252731323242,649.0
49.48503589630127,650.0
49.56315565109253,651.0
49.62567615509033,649.0
49.7037935256958,651.0
49.78192591667175,651.0
49.844425678253174,650.0
49.922544956207275,651.0
49.985050678253174,650.0
50.06315517425537,648.0
50.12565851211548,649.0
50.203777551651,651.0
50.2662992477417,649.0
50.34442448616028,621.0
50.43815326690674,651.0
50.51653051376343,382.0
50.594661474227905,650.0
50.67278218269348,128.0
50.750919818878174,651.0
50.907164573669434,649.0
51.04779124259949,650.0
51.20403790473938,649.0
51.34467172622681,649.0
51.500935316085815,649.0
51.641528844833374,650.0
51.719653606414795,264.0
51.79779934883118,651.0
51.8758978843689,501.0
51.93840479850769,649.0
52.01654243469238,649.0
52.102519512176514,651.0
52.18356943130493,649.0
52.258923053741455,650.0
52.36828017234802,649.0
52.44641160964966,650.0
52.52454233169556,650.0
52.602673053741455,651.0
52.665133237838745,651.0
52.7432906627655,651.0
52.8214225769043,650.0
52.88392782211304,650.0
52.96201133728027,649.0
53.04015755653381,196.0
53.1026668548584,650.0
53.274547815322876,651.0
53.415162086486816,651.0
53.571654319763184,650.0
53.72795391082764,650.0
53.86856555938721,650.0
54.02481245994568,651.0
54.16545534133911,649.0
54.32170367240906,650.0
54.47790884971619,650.0
54.61856722831726,651.0
54.77482771873474,650.0
54.85295629501343,161.0
54.91544246673584,651.0
54.99358248710632,82.0
55.07170748710632,650.0
55.1498167514801,576.0
55.22793745994568,650.0
55.30607342720032,649.0
55.38418531417847,650.0
55.446693897247314,606.0
55.52503824234009,450.0
55.61874294281006,650.0
55.69690561294556,193.0
55.77504110336304,651.0
55.94689917564392,651.0
56.10311770439148,651.0
56.27456474304199,649.0
56.4308340549469,649.0
56.571242332458496,649.0
56.728609800338745,650.0
56.900471210479736,649.0
57.05671167373657,651.0
57.21295976638794,649.0
57.3692102432251,650.0
57.44735145568848,17.0
57.52543067932129,649.0
57.60360765457153,137.0
57.697306871414185,650.0
57.79109239578247,248.0
57.869229316711426,649.0
57.94735670089722,198.0
58.025468826293945,650.0
58.103591203689575,43.0
58.18171787261963,650.0
58.259844064712524,32.0
58.337971448898315,650.0
58.41609287261963,136.0
58.49443006515503,651.0
58.57255816459656,650.0
58.65069794654846,650.0
58.72882127761841,650.0
58.80693173408508,651.0
58.885042905807495,649.0
58.978819370269775,469.0
59.05693769454956,649.0
59.13507580757141,72.0
59.21318435668945,651.0
59.3694486618042,649.0
59.525898933410645,650.0
59.68213105201721,651.0
59.838385581970215,650.0
59.99463486671448,649.0
60.15088486671448,649.0
60.32276725769043,650.0
60.479206562042236,649.0
60.65108275413513,649.0
60.82296442985535,650.0
60.97920608520508,651.0
61.15110111236572,650.0
61.22922158241272,37.0
61.30733299255371,649.0
61.40109086036682,193.0
61.47946286201477,644.0
61.55762839317322,404.0
61.65134644508362,507.0
61.72946810722351,643.0
61.80760335922241,331.0
61.88571906089783,650.0
61.97947692871094,93.0
62.05760598182678,649.0
62.21386194229126,651.0
62.37010955810547,650.0
62.542197465896606,650.0
62.698440074920654,650.0
62.870311975479126,650.0
63.02658271789551,650.0
63.182833671569824,650.0
63.35466241836548,651.0
63.510945081710815,651.0
63.68282604217529,649.0
63.8390793800354,650.0
63.995333671569824,650.0
64.16721200942993,649.0
64.3234589099884,649.0
64.51135492324829,650.0
64.68322563171387,649.0
64.76135039329529,95.0
64.83950114250183,648.0
64.93319296836853,272.0
65.01136755943298,606.0
65.08948707580566,471.0
65.18324685096741,423.0
65.2613742351532,648.0
65.33949995040894,227.0
65.43322825431824,649.0
65.51136136054993,538.0
65.58944725990295,651.0
65.68323493003845,650.0
65.76136255264282,650.0
65.85506987571716,649.0
65.93324375152588,649.0
66.01135396957397,650.0
66.0894923210144,650.0
66.16760683059692,650.0
66.26133227348328,650.0
66.33949518203735,637.0
66.43324089050293,651.0
66.55888247489929,372.0
66.66822719573975,651.0
66.76200866699219,63.0
66.84014177322388,650.0
67.01197624206543,649.0
67.19952511787415,649.0
67.35576033592224,649.0
67.52765274047852,650.0
67.69952726364136,651.0
67.90263772010803,650.0
68.07452034950256,651.0
68.15265464782715,158.0
68.2307755947113,650.0
68.32452058792114,451.0
68.41822981834412,651.0
68.49674773216248,637.0
68.59049415588379,649.0
68.6686053276062,648.0
68.76236200332642,650.0
68.84049868583679,651.0
68.9186201095581,651.0
69.01237106323242,651.0
69.09048104286194,649.0
69.16861915588379,651.0
69.26234889030457,649.0
69.35609936714172,651.0
69.51257276535034,651.0
69.68446516990662,651.0
69.85633659362793,651.0
69.95009422302246,384.0
70.04384112358093,651.0
70.12194776535034,16.0
70.21571016311646,650.0
70.38759279251099,651.0
70.4814658164978,9.0
70.55963253974915,650.0
70.74713182449341,649.0
70.93458533287048,649.0
71.10649490356445,649.0
71.2783854007721,649.0
71.3721284866333,42.0
71.45025944709778,650.0
71.52856874465942,392.0
71.62233233451843,651.0
71.71607899665833,182.0
71.79415822029114,649.0
71.88795280456543,244.0
71.9816997051239,644.0
72.05983901023865,470.0
72.13795900344849,433.0
72.23320651054382,648.0
72.32803726196289,159.0
72.42182755470276,649.0
72.59366035461426,650.0
72.76553583145142,651.0
72.95306611061096,650.0
73.1249577999115,650.0
73.29682326316833,649.0
73.46894407272339,650.0
73.65649175643921,650.0
73.89087677001953,649.0
74.0783679485321,650.0
74.2658326625824,649.0
74.4377510547638,651.0
74.60962057113647,651.0
74.81274151802063,649.0
75.03149151802063,650.0
75.21900248527527,651.0
75.39088344573975,649.0
75.48516321182251,49.0
75.56331515312195,651.0
75.6570246219635,649.0
75.75081753730774,649.0
75.84455990791321,648.0
75.93832230567932,590.0
76.0164544582367,649.0
76.11019682884216,325.0
76.20394968986511,649.0
76.28207993507385,10.0
76.37586688995361,649.0
76.56359720230103,650.0
76.76672506332397,650.0
76.95420026779175,650.0
77.14166808128357,649.0
77.32920026779175,650.0
77.50109934806824,650.0
77.68860030174255,651.0
77.87609004974365,650.0
78.06358766555786,649.0
78.25107669830322,651.0
78.43857598304749,649.0
78.61076927185059,651.0
78.79823231697083,649.0
78.9857885837555,651.0
79.07953572273254,18.0
79.17328476905823,650.0
79.26702165603638,146.0
79.37640452384949,641.0
79.48596167564392,328.0
79.59537196159363,498.0
79.70470976829529,558.0
79.79848837852478,314.0
79.90787124633789,649.0
80.00162243843079,81.0
80.09535813331604,649.0
80.26724219322205,651.0
80.47038412094116,649.0
80.56411838531494,649.0
80.6578803062439,650.0
80.75161480903625,649.0
80.84537816047668,650.0
80.93913507461548,648.0
81.03282737731934,649.0
81.12663435935974,651.0
81.22037410736084,651.0
81.29849243164062,651.0
81.392258644104,649.0
81.48627877235413,649.0
81.57999920845032,649.0
81.67374563217163,644.0
81.75191879272461,650.0
81.84567546844482,224.0
81.93940925598145,649.0
82.12692213058472,651.0
82.3144063949585,650.0
82.40815281867981,60.0
82.50190949440002,651.0
82.6894166469574,649.0
82.8768994808197,651.0
82.98628950119019,101.0
83.08003807067871,650.0
83.17377758026123,261.0
83.26753854751587,651.0
83.36129808425903,647.0
83.43942165374756,651.0
83.53350853919983,650.0
83.61163854598999,649.0
83.70540714263916,649.0
83.7991316318512,651.0
83.87727856636047,649.0
83.95538902282715,651.0
84.04914212226868,649.0
84.127281665802,141.0
84.22101926803589,650.0
84.39288783073425,651.0
84.58060646057129,651.0
84.75250244140625,651.0
84.92432260513306,650.0
85.11187314987183,651.0
85.28375816345215,651.0
85.45562863349915,651.0
85.64333844184875,651.0
85.8152129650116,651.0
86.00272607803345,650.0
86.19017243385315,651.0
86.37770700454712,650.0
86.45583629608154,68.0
86.54985308647156,649.0
86.64358115196228,366.0
86.73730325698853,651.0
86.83109855651855,648.0
86.9092128276825,650.0
87.00295925140381,651.0
87.08108830451965,651.0
87.17483639717102,650.0
87.25296425819397,649.0
87.34670543670654,650.0
87.42485427856445,648.0
87.51881718635559,651.0
87.5969226360321,650.0
87.69068741798401,649.0
87.7844307422638,648.0
87.8625500202179,649.0
87.95630311965942,649.0
88.03442406654358,651.0
88.12817049026489,528.0
88.22192096710205,651.0
88.31567406654358,333.0
88.40944027900696,650.0
88.50341367721558,83.0
88.59714961051941,650.0
88.78465366363525,649.0
88.97214770317078,649.0
89.2109727859497,650.0
89.38285231590271,650.0
89.57037925720215,650.0
89.77346849441528,651.0
89.9922239780426,650.0
90.21101546287537,649.0
90.33596181869507,25.0
90.4609706401825,647.0
90.58620095252991,200.0
90.71126079559326,527.0
90.78937482833862,402.0
90.89870095252991,329.0
91.02371764183044,636.0
91.11749529838562,100.0
91.21120381355286,649.0
91.44563055038452,650.0
91.63334345817566,650.0
91.86770296096802,649.0
92.05520153045654,651.0
92.27400398254395,651.0
92.47711181640625,651.0
92.71146440505981,651.0
92.91462182998657,651.0
93.16457414627075,650.0
93.35211515426636,649.0
93.53993058204651,650.0
93.77428412437439,649.0
93.97739934921265,649.0
94.16493964195251,650.0
94.36803913116455,649.0
94.58693313598633,650.0
94.68067979812622,19.0
94.77444624900818,649.0
94.86819362640381,170.0
94.96194243431091,607.0
95.05567741394043,399.0
95.16504621505737,455.0
95.24317741394043,618.0
95.33692741394043,225.0
95.44627285003662,649.0
95.63399982452393,651.0
95.83712768554688,651.0
96.02462959289551,650.0
96.21212792396545,649.0
96.41527128219604,651.0
96.6342499256134,650.0
96.82930326461792,650.0
97.02038478851318,651.0
97.22073316574097,649.0
97.45508122444153,650.0
97.65824866294861,651.0
97.86136198043823,650.0
98.04885864257812,649.0
98.26761746406555,650.0
98.4707384109497,651.0
98.56488943099976,245.0
98.65862250328064,651.0
98.87736368179321,649.0
98.9711241722107,177.0
99.06488537788391,650.0
99.17425608634949,144.0
99.28363561630249,649.0
99.40861129760742,376.0
99.51845145225525,649.0
99.62784457206726,651.0
99.72154545783997,598.0
99.8309531211853,651.0
99.92470812797546,191.0
100.03409361839294,651.0
100.2215838432312,651.0
100.42471313476562,649.0
100.62783885002136,651.0
100.83093214035034,650.0
101.03406143188477,651.0
101.23720264434814,650.0
101.42471218109131,651.0
101.62806963920593,650.0
101.83114123344421,651.0
102.0343062877655,649.0
102.23744368553162,651.0
102.44056010246277,650.0
102.64369177818298,650.0
102.84680032730103,649.0
103.0499255657196,648.0
103.15930795669556,123.0
103.26864647865295,534.0
103.37805080413818,299.0
103.47182273864746,355.0
103.58149456977844,519.0
103.69086170196533,135.0
103.78463244438171,650.0
103.98770809173584,649.0
104.20650219917297,650.0
104.39400124549866,649.0
104.59737086296082,650.0
104.70671224594116,582.0
104.81608891487122,650.0
104.90983986854553,638.0
105.01925778388977,650.0
105.22238254547119,650.0
105.42551398277283,650.0
105.62886476516724,650.0
105.83198738098145,650.0
106.03509640693665,651.0
106.23822331428528,650.0
106.4413046836853,650.0
106.67591643333435,649.0
106.8790557384491,650.0
107.09778642654419,649.0
107.30092334747314,650.0
107.39468312263489,56.0
107.50424885749817,647.0
107.5980064868927,217.0
107.70738339424133,541.0
107.816730260849,459.0
107.91050148010254,319.0
108.01987934112549,648.0
108.12921023368835,96.0
108.23860955238342,651.0
108.45736861228943,650.0
108.67612361907959,649.0
108.87925505638123,650.0
109.09799838066101,650.0
109.30111575126648,649.0
109.52006983757019,650.0
109.62948369979858,464.0
109.72322249412537,649.0
109.94198179244995,650.0
110.145099401474,650.0
110.3794915676117,650.0
110.59844493865967,651.0
110.81717586517334,650.0
111.02031898498535,649.0
111.2390489578247,650.0
111.44217777252197,650.0
111.66113615036011,649.0
111.77052402496338,49.0
111.87988305091858,648.0
111.989266872406,216.0
112.09863257408142,561.0
112.19239044189453,433.0
112.3017680644989,392.0
112.41114354133606,642.0
112.52075338363647,163.0
112.63012528419495,651.0
112.84888744354248,651.0
113.0675950050354,649.0
113.28637981414795,651.0
113.48970913887024,649.0
113.70847511291504,649.0
113.9272346496582,651.0
114.13036179542542,651.0
114.34906601905823,650.0
114.5836706161499,649.0
114.82192301750183,651.0
115.04225540161133,651.0
115.26096415519714,650.0
115.47976279258728,650.0
115.71411919593811,651.0
115.93287134170532,650.0
116.1672625541687,647.0
116.27662539482117,71.0
116.38600873947144,560.0
116.51129031181335,204.0
116.62060523033142,392.0
116.7300136089325,368.0
116.8393907546997,294.0
116.94877934455872,540.0
117.07377314567566,217.0
117.18313455581665,649.0
117.29253220558167,152.0
117.41747379302979,650.0
117.52710175514221,26.0
117.63647294044495,650.0
117.87086462974548,651.0
118.1118700504303,649.0
118.3462586402893,649.0
118.58063817024231,649.0
118.7994384765625,651.0
119.03378534317017,651.0
119.25254917144775,650.0
119.48693037033081,650.0
119.70598244667053,649.0
119.94030737876892,649.0
120.174724817276,651.0
120.39346408843994,650.0
120.64373993873596,650.0
120.8780906200409,648.0
120.9874861240387,45.0
121.09685921669006,593.0
121.22186136245728,182.0
121.33123755455017,416.0
121.456228017807,364.0
121.56559681892395,197.0
121.67498779296875,585.0
121.90934324264526,648.0
122.15931439399719,650.0
122.37810969352722,650.0
122.61275148391724,649.0
122.84712743759155,650.0
123.09708666801453,651.0
123.34712719917297,649.0
123.5815019607544,649.0
123.81588053703308,649.0
124.09707355499268,651.0
124.31586384773254,650.0
124.59730505943298,650.0
124.86298441886902,650.0
125.09730863571167,650.0
125.33172821998596,650.0
125.56629467010498,649.0
125.80068755149841,648.0
126.05064392089844,644.0
126.16004872322083,20.0
126.28501582145691,528.0
126.41000723838806,166.0
126.51962685585022,328.0
126.64461541175842,356.0
126.7539587020874,68.0
126.89461398124695,580.0
127.12900829315186,649.0
127.36336874961853,649.0
127.59799599647522,650.0
127.83234190940857,650.0
128.08236837387085,650.0
128.31676626205444,649.0
128.5669810771942,649.0
128.8013436794281,651.0
129.03571939468384,649.0
129.27006340026855,649.0
129.50446844100952,650.0
129.75444173812866,651.0
129.9888596534729,650.0
130.22319078445435,651.0
130.4888505935669,649.0
130.73917436599731,651.0
130.98917627334595,650.0
131.22357892990112,648.0
131.3485667705536,57.0
131.45794558525085,646.0
131.58332324028015,209.0
131.70833277702332,514.0
131.81769704818726,407.0
131.9427137374878,322.0
132.06771612167358,624.0
132.1926884651184,69.0
132.30206894874573,650.0
132.5520887374878,650.0
132.80204105377197,649.0
133.036452293396,651.0
133.28644037246704,650.0
133.53704738616943,649.0
133.77147674560547,649.0
134.02144837379456,650.0
134.27141952514648,651.0
134.52167320251465,650.0
134.77167057991028,650.0
135.03727388381958,650.0
135.28725266456604,650.0
135.53753185272217,650.0
135.78751730918884,651.0
136.03752827644348,650.0
136.28753280639648,646.0
136.53779554367065,536.0
136.66281366348267,102.0
136.78781270980835,356.0
136.91277050971985,268.0
137.0378179550171,148.0
137.16282439231873,481.0
137.41282057762146,648.0
137.6628065109253,650.0
137.91280460357666,651.0
138.1784393787384,650.0
138.42839813232422,651.0
138.678870677948,650.0
138.94448828697205,649.0
139.21009278297424,650.0
139.46010565757751,650.0
139.71030521392822,649.0
139.99152278900146,649.0
140.2571907043457,649.0
140.52305793762207,651.0
140.78867554664612,651.0
141.03868198394775,651.0
141.28866600990295,649.0
141.55463695526123,640.0
141.80464553833008,523.0
142.07022380828857,384.0
142.19527125358582,122.0
142.3202681541443,204.0
142.4608929157257,280.0
142.58612251281738,112.0
142.71116137504578,522.0
142.99237275123596,648.0
143.2424294948578,651.0
143.49241256713867,651.0
143.75840497016907,650.0
144.02397394180298,651.0
144.35213255882263,650.0
144.60250639915466,649.0
144.86811876296997,651.0
145.16495633125305,650.0
145.4618842601776,651.0
145.72770380973816,649.0
145.99333143234253,649.0
146.25895881652832,651.0
146.54040670394897,649.0
146.7904143333435,649.0
147.0560290813446,651.0
147.30604076385498,650.0
147.5718972682953,650.0
147.8375232219696,650.0
148.10311460494995,651.0
148.24378085136414,123.0
148.3687882423401,649.0
148.50959396362305,201.0
148.63457083702087,648.0
148.915869474411,650.0
149.0564887523651,437.0
149.18147945404053,313.0
149.3221151828766,650.0
149.4627423286438,648.0
149.58809447288513,649.0
149.90058827400208,650.0
150.18183875083923,650.0
150.44747233390808,649.0
150.74452424049377,650.0
151.01014876365662,651.0
151.2757749557495,650.0
151.5416123867035,649.0
151.82284998893738,651.0
152.08847832679749,649.0
152.35409545898438,651.0
152.62008452415466,651.0
152.90127849578857,650.0
153.1981999874115,649.0
153.35443663597107,33.0
153.51088333129883,648.0
153.6359314918518,171.0
153.77654266357422,592.0
153.9171314239502,345.0
154.04213547706604,445.0
154.18279433250427,583.0
154.32343363761902,222.0
154.46403765678406,649.0
154.6049301624298,25.0
154.7455244064331,650.0
155.02677083015442,650.0
155.29242968559265,650.0
155.58953976631165,650.0
155.93328094482422,650.0
156.24579524993896,650.0
156.61124229431152,649.0
156.92373371124268,651.0
157.28312039375305,650.0
157.611403465271,651.0
157.89270401000977,651.0
158.22083163261414,651.0
158.51768517494202,650.0
158.83016085624695,651.0
159.15833854675293,649.0
159.48644018173218,650.0
159.62725377082825,39.0
159.8303942680359,617.0
159.97105050086975,165.0
160.11162996292114,473.0
160.29912638664246,358.0
160.5022644996643,275.0
160.65876865386963,575.0
160.79937291145325,55.0
160.92435026168823,649.0
161.22126460075378,649.0
161.50248456001282,650.0
161.78376817703247,650.0
162.06497597694397,649.0
162.346266746521,651.0
162.62775444984436,649.0
162.90899658203125,650.0
163.190260887146,649.0
163.48712873458862,650.0
163.76839423179626,651.0
164.0496416091919,649.0
164.34646081924438,650.0
164.62806391716003,650.0
164.90931725502014,649.0
165.22179055213928,650.0
165.50308060646057,649.0
165.7842833995819,650.0
166.06553483009338,649.0
166.3468198776245,651.0
166.48742985725403,168.0
166.62833905220032,650.0
166.78461265563965,229.0
166.92524480819702,646.0
167.06584310531616,560.0
167.2064769268036,363.0
167.34711265563965,651.0
167.4877393245697,12.0
167.62857365608215,650.0
167.90980744361877,651.0
168.2066490650177,650.0
168.4879493713379,651.0
168.7848026752472,651.0
169.07127141952515,651.0
169.368155002594,651.0
169.64945268630981,651.0
169.9463291168213,651.0
170.22757935523987,650.0
170.50884127616882,649.0
170.80604147911072,649.0
171.0872838497162,650.0
171.36853194236755,651.0
171.6497995853424,648.0
171.94667768478394,648.0
172.08728170394897,46.0
172.24352598190308,648.0
172.38415002822876,14.0
172.5253095626831,650.0
172.66594433784485,633.0
172.80662655830383,649.0
172.9628667831421,650.0
173.10349416732788,651.0
173.22849869728088,651.0
173.36912989616394,543.0
173.50975131988525,651.0
173.82245802879333,650.0
174.10370707511902,651.0
174.4005947113037,649.0
174.68180108070374,650.0
174.97871565818787,651.0
175.2599596977234,649.0
175.55711841583252,649.0
175.8539936542511,649.0
176.15086150169373,649.0
176.43211722373962,649.0
176.72893619537354,649.0
177.02581429481506,651.0
177.32273268699646,651.0
177.61996006965637,651.0
177.9168119430542,650.0
178.057466506958,81.0
178.19804286956787,619.0
178.35434222221375,251.0
178.49494981765747,480.0
178.66683626174927,479.0
178.80746483802795,322.0
178.9636890888214,648.0
179.10429668426514,113.0
179.24496936798096,649.0
179.56153416633606,650.0
179.86157512664795,650.0
180.1584997177124,649.0
180.45533394813538,651.0
180.75226640701294,650.0
180.90850162506104,537.0
181.04912734031677,651.0
181.36158871650696,650.0
181.65877175331116,651.0
181.95568180084229,649.0
182.25256371498108,649.0
182.54944610595703,649.0
182.86194252967834,651.0
183.15881538391113,649.0
183.45567560195923,649.0
183.7684292793274,649.0
184.06529474258423,650.0
184.3621792793274,649.0
184.65906882286072,649.0
184.81530332565308,219.0
184.9715588092804,650.0
185.11217737197876,319.0
185.26839590072632,650.0
185.4090657234192,361.0
185.56531834602356,554.0
185.7059280872345,548.0
185.86216592788696,317.0
186.00280213356018,650.0
186.3153157234192,650.0
186.61287093162537,649.0
186.92534685134888,649.0
187.22222995758057,650.0
187.37849831581116,50.0
187.69117736816406,650.0
187.98808002471924,650.0
188.34744596481323,650.0
188.70698380470276,649.0
189.01948380470276,648.0
189.3163833618164,649.0
189.6288547515869,650.0
189.92575454711914,649.0
190.23824334144592,649.0
190.55109763145447,650.0
190.86361241340637,649.0
191.17608952522278,610.0
191.48860669136047,479.0
191.6450550556183,92.0
191.80135202407837,293.0
191.9575481414795,231.0
192.11383867263794,57.0
192.27008199691772,411.0
192.58258485794067,611.0
192.89508700370789,650.0
193.22321939468384,651.0
193.59872841835022,650.0
193.91121339797974,649.0
194.2237250804901,651.0
194.53644323349,651.0
194.848956823349,650.0
195.17704820632935,650.0
195.48958134651184,650.0
195.81767868995667,650.0
195.9739453792572,650.0
196.13020992279053,649.0
196.27082800865173,650.0
196.4270989894867,650.0
196.58370757102966,15.0
196.72432923316956,650.0
197.0524456501007,649.0
197.3649606704712,642.0
197.52122020721436,650.0
197.67770385742188,650.0
197.83390474319458,649.0
197.9745650291443,650.0
198.13080477714539,650.0
198.28702807426453,649.0
198.4276852607727,650.0
198.58413314819336,650.0
198.7247612476349,651.0
198.88100242614746,648.0
199.03726363182068,650.0
199.17788743972778,552.0
199.33414554595947,651.0
199.49037528038025,281.0
199.64685130119324,650.0
199.95929527282715,650.0
200.30309438705444,649.0
200.6158094406128,650.0
200.92831563949585,650.0
201.2564344406128,650.0
201.56893825531006,650.0
201.8970503807068,649.0
202.20954871177673,649.0
202.53790020942688,650.0
202.850444316864,650.0
203.1802520751953,650.0
203.492742061615,649.0
203.8052463531494,649.0
204.13336181640625,648.0
204.44588351249695,646.0
204.77434182167053,558.0
204.93055248260498,40.0
205.0868501663208,405.0
205.25870299339294,166.0
205.43059253692627,204.0
205.58700895309448,347.0
205.91516852378845,521.0
206.22768449783325,648.0
206.54032397270203,650.0
206.8528754711151,650.0
207.16535258293152,650.0
207.47785997390747,649.0
207.79065108299255,649.0
208.10311698913574,650.0
208.41559028625488,650.0
208.74370312690735,650.0
209.10311269760132,650.0
209.41562271118164,650.0
209.7283844947815,650.0
210.0252821445465,650.0
210.3377764225006,649.0
210.68175411224365,650.0
211.0254521369934,649.0
211.35356760025024,646.0
211.65072202682495,559.0
211.96322536468506,436.0
212.11942315101624,35.0
212.27570605278015,261.0
212.43196487426758,157.0
212.58844923973083,24.0
212.74469470977783,313.0
213.05717635154724,494.0
213.36963748931885,648.0
213.69805431365967,650.0
214.01055693626404,650.0
214.3386311531067,650.0
214.6670002937317,650.0
214.97955513000488,649.0
215.30762934684753,649.0
215.63605427742004,650.0
215.9581344127655,649.0
216.30795884132385,649.0
216.63848567008972,649.0
216.9830777645111,650.0
217.38587474822998,649.0
223.62143206596375,648.0
224.0371823310852,650.0
224.40921306610107,648.0
224.8102958202362,648.0
225.20986437797546,591.0
225.61845898628235,449.0
225.82162237167358,38.0
226.00908160209656,292.0
226.1966073513031,169.0
226.36848163604736,151.0
226.5247404575348,335.0
226.6965835094452,2.0
226.85286712646484,515.0
227.0247495174408,363.0
227.18101143836975,244.0
227.33726382255554,648.0
227.4934527873993,649.0
227.65007948875427,97.0
227.82191348075867,649.0
228.16571235656738,650.0
228.4938292503357,650.0
228.82214903831482,649.0
229.1347017288208,649.0
229.46282839775085,650.0
229.7909426689148,649.0
230.11907958984375,650.0
230.44719171524048,650.0
230.79112672805786,651.0
231.11922550201416,649.0
231.4317750930786,650.0
231.77573251724243,650.0
232.11948490142822,648.0
232.4320056438446,649.0
232.60412311553955,650.0
232.76038241386414,650.0
232.91661643981934,650.0
233.0728840827942,650.0
233.24470901489258,570.0
233.40095925331116,646.0
233.57304549217224,612.0
233.74492168426514,426.0
233.90122079849243,649.0
234.0574688911438,146.0
234.213721036911,649.0
234.5418303012848,649.0
234.87036776542664,651.0
235.1984760761261,651.0
235.51095008850098,649.0
235.83939170837402,649.0
236.16750073432922,649.0
236.4956398010254,649.0
236.823970079422,651.0
237.15210008621216,649.0
237.49583745002747,649.0
237.82416653633118,650.0
238.15229392051697,649.0
238.49605059623718,650.0
238.8244445323944,649.0
239.16819143295288,648.0
239.4962830543518,645.0
239.84029841423035,579.0
0.0,651.0
1.706214427947998,255.0
1.8156156539916992,234.0
1.8780903816223145,56.0
1.924964189529419,139.0
1.9874846935272217,235.0
2.096850872039795,422.0
2.1905879974365234,597.0
2.2843406200408936,649.0
2.378089666366577,649.0
2.4874653816223145,650.0
2.581528425216675,649.0
2.6909313201904297,650.0
2.7846837043762207,650.0
4.863128900527954,650.0
4.972744464874268,642.0
10.52536416053772,194.0
10.634745359420776,649.0
10.728490829467773,651.0
10.837865114212036,649.0
10.884724140167236,651.0
10.931605339050293,650.0
10.978492975234985,650.0
11.040969610214233,649.0
11.103525876998901,650.0
11.15034818649292,651.0
11.197222709655762,649.0
11.244098424911499,650.0
11.30660080909729,649.0
11.353477239608765,650.0
11.400350570678711,651.0
11.447222471237183,650.0
11.494110584259033,650.0
11.556890964508057,649.0
11.603766441345215,651.0
11.666239261627197,651.0
11.728768825531006,650.0
11.79126763343811,650.0
11.838142395019531,651.0
11.8850257396698,422.0
11.947518110275269,402.0
13.19753122329712,650.0
13.259984254837036,587.0
13.322497367858887,649.0
13.369393348693848,649.0
13.431903839111328,651.0
13.478766679763794,651.0
13.541510105133057,651.0
13.588441133499146,651.0
13.635298490524292,649.0
13.697815418243408,649.0
13.744698286056519,651.0
13.807176351547241,651.0
13.854049921035767,649.0
13.916553974151611,651.0
13.96342658996582,650.0
14.025947093963623,651.0
14.072799444198608,649.0
14.135307550430298,649.0
14.197815179824829,650.0
14.244695901870728,651.0
14.307190656661987,651.0
14.354064464569092,650.0
14.416573762893677,649.0
14.463433027267456,651.0
14.525896072387695,649.0
14.588781356811523,649.0
14.635705709457397,649.0
14.698204517364502,651.0
14.745071411132812,650.0
14.791956901550293,650.0
14.854439735412598,650.0
14.90132737159729,650.0
14.963828802108765,650.0
15.010704278945923,651.0
15.05756425857544,650.0
15.12006402015686,651.0
15.166939735412598,650.0
15.213829040527344,649.0
15.276328802108765,650.0
15.323188781738281,650.0
15.385703802108765,649.0
15.432579278945923,651.0
15.495078802108765,649.0
15.542377471923828,651.0
15.589271545410156,650.0
15.651771783828735,649.0
15.714272022247314,650.0
15.761146545410156,650.0
15.808022260665894,650.0
15.870507955551147,650.0
15.933005094528198,650.0
15.995505094528198,651.0
16.04239559173584,650.0
16.104867935180664,649.0
16.15176033973694,650.0
16.21425724029541,649.0
16.261144638061523,651.0
16.32364773750305,650.0
16.370506048202515,649.0
16.417381763458252,650.0
16.47989535331726,650.0
16.52675700187683,651.0
16.574076175689697,651.0
16.620972394943237,651.0
16.683467864990234,649.0
16.730339288711548,649.0
16.79284429550171,649.0
16.83970069885254,649.0
16.90220069885254,651.0
16.949105978012085,651.0
17.01159405708313,651.0
17.058467149734497,649.0
17.120952606201172,651.0
17.16782569885254,650.0
17.23032569885254,649.0
17.277220010757446,651.0
17.324093103408813,649.0
17.386600494384766,649.0
17.43346381187439,650.0
17.480339765548706,651.0
17.543185234069824,649.0
17.59012007713318,650.0
17.652604341506958,651.0
17.699479341506958,650.0
17.76197862625122,650.0
17.82449722290039,649.0
17.87137246131897,651.0
17.91822862625122,651.0
17.980745792388916,651.0
18.027620315551758,650.0
18.090075731277466,651.0
18.1526198387146,650.0
18.21511220932007,650.0
18.261978149414062,650.0
18.32448124885559,649.0
18.3713538646698,650.0
18.41822910308838,650.0
18.46511745452881,650.0
18.52760672569275,651.0
18.57449698448181,649.0
18.621354818344116,650.0
18.68385648727417,649.0
18.761953830718994,649.0
18.824490547180176,650.0
18.89756155014038,650.0
18.94560718536377,651.0
18.992491483688354,650.0
19.05498456954956,649.0
19.10185170173645,650.0
19.164323806762695,649.0
19.211227893829346,650.0
19.273743629455566,650.0
19.32060408592224,651.0
19.39870309829712,650.0
19.49249505996704,650.0
19.570584058761597,650.0
19.63307499885559,650.0
19.695608615875244,649.0
19.77369976043701,649.0
19.820618152618408,650.0
19.883112907409668,651.0
19.945622205734253,649.0
19.992476224899292,650.0
20.054983615875244,650.0
20.11749529838562,651.0
20.16436767578125,651.0
20.226852416992188,651.0
20.273743867874146,649.0
20.336227416992188,649.0
20.398717880249023,651.0
20.4612033367157,650.0
20.523695945739746,651.0
20.601988315582275,651.0
20.648875951766968,649.0
20.69577693939209,650.0
20.75828790664673,650.0
20.805140495300293,649.0
20.851996421813965,649.0
20.91448450088501,651.0
20.9770610332489,649.0
21.03949546813965,650.0
21.086390018463135,650.0
21.133275032043457,649.0
21.180155992507935,651.0
21.242660760879517,651.0
21.273905515670776,649.0
21.320764303207397,651.0
21.383264780044556,651.0
21.430140256881714,649.0
21.477030515670776,651.0
21.52386450767517,649.0
21.57079005241394,650.0
21.617664337158203,649.0
21.66451644897461,649.0
21.71139097213745,651.0
21.7582368850708,651.0
21.820767164230347,650.0
21.867640018463135,649.0
21.914515256881714,651.0
21.96139144897461,650.0
22.00823736190796,649.0
22.055140495300293,650.0
22.102015495300293,650.0
22.148893117904663,649.0
22.19576859474182,650.0
22.242639541625977,649.0
22.289534330368042,650.0
22.336406469345093,650.0
22.398892879486084,651.0
22.44576597213745,651.0
22.49264621734619,650.0
22.53951597213745,650.0
22.586966037750244,651.0
22.633840322494507,651.0
22.680715560913086,651.0
22.727580308914185,649.0
22.77442479133606,650.0
22.82134199142456,650.0
22.868219137191772,649.0
22.915088415145874,651.0
22.96194887161255,651.0
23.008838415145874,651.0
23.05571460723877,649.0
23.118208169937134,649.0
23.16507387161255,651.0
23.211947917938232,649.0
23.258824110031128,649.0
23.305715084075928,650.0
23.352575063705444,649.0
23.399452447891235,650.0
23.46194887161255,650.0
23.508831024169922,650.0
23.555713653564453,651.0
23.60258960723877,650.0
23.64944887161255,649.0
23.696324110031128,651.0
23.74320149421692,651.0
23.790087938308716,650.0
23.83695387840271,651.0
23.899450302124023,650.0
23.94632387161255,650.0
23.99321436882019,650.0
24.040085077285767,651.0
24.08696413040161,650.0
24.14944887161255,649.0
24.196325063705444,649.0
24.243203163146973,649.0
24.305671215057373,651.0
24.36819577217102,651.0
24.41508722305298,649.0
24.461923599243164,651.0
24.524466276168823,651.0
24.57155728340149,650.0
24.618417024612427,650.0
24.66529130935669,649.0
24.712167501449585,649.0
24.774667024612427,650.0
24.821561098098755,650.0
24.86841917037964,650.0
24.915305614471436,651.0
24.97775936126709,651.0
25.024682760238647,651.0
25.07155466079712,651.0
25.11844038963318,650.0
25.165292978286743,650.0
25.212188482284546,649.0
25.274666786193848,650.0
25.321557760238647,651.0
25.36841893196106,649.0
25.430917263031006,649.0
25.4778048992157,650.0
25.524667024612427,650.0
25.571850776672363,650.0
25.634350299835205,650.0
25.68122625350952,650.0
25.743710041046143,650.0
25.790584325790405,650.0
25.837461471557617,649.0
25.884357929229736,651.0
25.931223154067993,650.0
25.97810125350952,651.0
26.02497363090515,649.0
26.07184934616089,650.0
26.134334802627563,651.0
26.181226015090942,651.0
26.22808527946472,650.0
26.275001287460327,650.0
26.321848154067993,650.0
26.384336233139038,651.0
26.4312264919281,650.0
26.478102684020996,650.0
26.524983882904053,651.0
26.57207202911377,649.0
26.63453698158264,650.0
26.681423902511597,651.0
26.72832751274109,650.0
26.775210857391357,649.0
26.82207202911377,651.0
26.8689444065094,649.0
26.931444883346558,651.0
26.978334426879883,650.0
27.025214672088623,649.0
27.087697744369507,651.0
27.134584665298462,650.0
27.197091579437256,651.0
27.243959665298462,650.0
27.29083561897278,650.0
27.337709426879883,650.0
27.384569883346558,650.0
27.447086095809937,649.0
27.493974447250366,650.0
27.540831804275513,650.0
27.587710857391357,650.0
27.63456892967224,649.0
27.697086334228516,650.0
27.743945121765137,650.0
27.790818214416504,650.0
27.837695837020874,651.0
27.884570121765137,651.0
27.931443214416504,651.0
27.993945121765137,651.0
28.04083228111267,650.0
28.087696075439453,651.0
28.13458800315857,649.0
28.18146586418152,649.0
28.22831916809082,649.0
28.27519679069519,651.0
28.337711095809937,651.0
28.3845853805542,649.0
28.43146014213562,649.0
28.4783194065094,649.0
28.525198221206665,650.0
28.5881929397583,649.0
28.635085821151733,650.0
28.68195939064026,649.0
28.744447946548462,650.0
28.80695939064026,650.0
28.8538236618042,649.0
28.900694131851196,649.0
28.947585105895996,650.0
29.010071516036987,651.0
29.056944608688354,649.0
29.103835821151733,650.0
29.150710582733154,650.0
29.213165521621704,650.0
29.260085344314575,651.0
29.306943655014038,650.0
29.369486331939697,650.0
29.43196678161621,650.0
29.478821277618408,649.0
29.525713205337524,651.0
29.572905778884888,651.0
29.635387659072876,649.0
29.68227243423462,651.0
29.744765043258667,651.0
29.791653156280518,651.0
29.854142665863037,650.0
29.90101647377014,649.0
29.963513612747192,649.0
30.01040267944336,650.0
30.072887420654297,650.0
30.119778394699097,649.0
30.166637420654297,650.0
30.213489770889282,651.0
30.27602791786194,651.0
30.322888612747192,651.0
30.3697772026062,650.0
30.416638612747192,651.0
30.479159355163574,651.0
30.526015043258667,650.0
30.573089599609375,651.0
30.6356041431427,650.0
30.6824848651886,649.0
30.729355335235596,650.0
30.776230335235596,650.0
30.838714361190796,650.0
30.885605573654175,649.0
30.948099374771118,650.0
30.994965076446533,651.0
31.0418643951416,651.0
31.104357481002808,649.0
31.151233196258545,650.0
31.198106050491333,649.0
31.24497699737549,650.0
31.307432889938354,651.0
31.35434079170227,649.0
31.416856288909912,650.0
31.46371579170227,651.0
31.52623200416565,651.0
31.57340979576111,649.0
31.635923147201538,649.0
31.682769298553467,649.0
31.729614973068237,649.0
31.792160987854004,649.0
31.839019775390625,651.0
31.88590979576111,651.0
31.948394298553467,649.0
31.99527096748352,650.0
32.042115926742554,651.0
32.089022636413574,649.0
32.15152192115784,649.0
32.198395013809204,651.0
32.24526882171631,650.0
32.307785987854004,651.0
32.35464596748352,650.0
32.41716027259827,106.0
47.90721774101257,259.0
89.16560959815979,649.0
89.2124514579773,146.0
89.27495670318604,651.0
89.32182455062866,650.0
89.36866998672485,649.0
89.41557431221008,650.0
89.47807717323303,651.0
89.52495169639587,650.0
89.57182550430298,649.0
89.61868667602539,650.0
89.6655752658844,650.0
89.72809028625488,649.0
89.77496552467346,649.0
89.83745837211609,651.0
89.89994740486145,650.0
89.9468240737915,649.0
89.99369835853577,649.0
90.05621862411499,650.0
90.1030900478363,651.0
90.14996671676636,649.0
90.1968400478363,650.0
90.24370098114014,649.0
90.29057359695435,650.0
90.3374650478363,649.0
90.3843297958374,651.0
90.43121194839478,649.0
90.49370241165161,649.0
90.54059100151062,650.0
90.5874650478363,651.0
90.63496541976929,651.0
90.69746541976929,650.0
90.77562761306763,651.0
90.82249641418457,649.0
90.86939215660095,650.0
90.91624283790588,649.0
90.9631187915802,650.0
91.02562022209167,650.0
91.07249641418457,651.0
91.11936855316162,651.0
91.16624665260315,649.0
91.21312093734741,649.0
91.27562284469604,650.0
91.32250833511353,650.0
91.36936831474304,651.0
91.41625118255615,411.0
91.47871446609497,650.0
91.52563714981079,650.0
91.58809638023376,650.0
91.63542318344116,649.0
91.69789433479309,650.0
91.74475193023682,650.0
91.80725717544556,649.0
91.85413336753845,649.0
91.90096879005432,650.0
91.94788956642151,649.0
92.68225288391113,649.0
92.72913408279419,115.0
92.77603101730347,650.0
92.82287836074829,649.0
92.88539385795593,649.0
92.93226456642151,651.0
92.9791419506073,650.0
93.02601718902588,651.0
93.07287645339966,649.0
93.11975169181824,649.0
93.16664218902588,649.0
93.21352314949036,650.0
93.27601504325867,651.0
93.3385169506073,649.0
93.38539242744446,650.0
93.43225193023682,649.0
93.47914147377014,651.0
93.52600312232971,649.0
93.57287764549255,650.0
93.61998105049133,649.0
93.68248867988586,651.0
93.72936415672302,649.0
93.79184818267822,649.0
93.83872365951538,650.0
93.90122437477112,650.0
93.9480721950531,650.0
93.99497509002686,649.0
94.04186367988586,650.0
94.08872389793396,650.0
94.13561344146729,650.0
94.18247318267822,649.0
94.22936367988586,651.0
94.29186010360718,649.0
94.33873963356018,651.0
94.3856041431427,650.0
94.43248462677002,650.0
94.47934770584106,651.0
94.54186248779297,649.0
94.58873963356018,650.0
94.63561129570007,650.0
94.6824836730957,650.0
94.72934985160828,650.0
94.79186177253723,650.0
94.85435223579407,651.0
94.90122437477112,649.0
94.94811367988586,650.0
95.01059865951538,649.0
95.05749487876892,650.0
95.11997056007385,597.0
95.18244481086731,650.0
95.24500799179077,515.0
95.3074414730072,651.0
95.37000060081482,650.0
95.41683459281921,651.0
95.47931694984436,650.0
95.54184985160828,651.0
95.58874106407166,650.0
95.63556671142578,651.0
95.6824734210968,650.0
95.74499106407166,649.0
95.79186487197876,650.0
97.55078172683716,649.0
97.67579483985901,586.0
97.76957869529724,603.0
97.83207178115845,68.0
98.53516340255737,650.0
98.59766483306885,570.0
98.66050863265991,651.0
98.72300457954407,585.0
98.7855052947998,650.0
98.84798073768616,537.0
98.92613887786865,651.0
98.98860812187195,558.0
99.05112719535828,649.0
99.12926125526428,650.0
99.19172596931458,650.0
99.25424456596375,651.0
99.31672978401184,650.0
99.36361002922058,649.0
99.44175720214844,651.0
99.51986908912659,315.0
120.77521228790283,610.0
120.8220887184143,651.0
120.86896252632141,651.0
120.93148303031921,650.0
120.97835278511047,650.0
121.04084515571594,649.0
121.08772826194763,650.0
121.19709396362305,646.0
121.63492369651794,81.0
121.74435496330261,336.0
138.87196111679077,509.0
138.9813208580017,650.0
139.09071969985962,649.0
139.21570920944214,650.0
139.54384398460388,647.0
139.65342330932617,649.0
139.77844381332397,650.0
139.84093070030212,255.0
139.8878140449524,649.0
139.95029592514038,649.0
140.01280069351196,649.0
140.0596888065338,651.0
140.10656309127808,650.0
140.1690571308136,649.0
140.23156547546387,649.0
140.2784242630005,650.0
140.34093928337097,646.0
140.38779854774475,649.0
140.45029640197754,365.0
140.512766122818,565.0
140.6065330505371,14.0
144.9153597354889,272.0
148.10387229919434,649.0
148.21325492858887,651.0
148.27575659751892,80.0
148.32261562347412,649.0
148.3851158618927,647.0
148.43203115463257,649.0
148.49449157714844,650.0
148.54136538505554,650.0
148.60386562347412,650.0
148.65131330490112,650.0
148.69820928573608,650.0
148.76072359085083,649.0
148.82321095466614,651.0
148.8700852394104,650.0
148.93258619308472,650.0
